2	-1e-05	-4e-05	1e-05	0.00013	5e-05	-1e-05	-2e-05	-1e-05	0
6	-1e-05	-4e-05	1e-05	0.00013	5e-05	-1e-05	-2e-05	-1e-05	0
7	-1e-05	-1e-05	-4e-05	-7e-05	-9e-05	-3e-05	-1e-05	-3e-05	0
8	-2e-05	2e-05	4e-05	-7e-05	-8e-05	-2e-05	-1e-05	-1e-05	0
9	-2e-05	2e-05	4e-05	-7e-05	-8e-05	-2e-05	-1e-05	-1e-05	0
10	-2e-05	2e-05	4e-05	-7e-05	-8e-05	-2e-05	-1e-05	-1e-05	0
11	-2e-05	2e-05	4e-05	-7e-05	-8e-05	-2e-05	-1e-05	-1e-05	0
12	-2e-05	2e-05	4e-05	-7e-05	-8e-05	-2e-05	-1e-05	-1e-05	0
13	-2e-05	2e-05	4e-05	-7e-05	-8e-05	-2e-05	-1e-05	-1e-05	0
14	-2e-05	2e-05	4e-05	-7e-05	-8e-05	-2e-05	-1e-05	-1e-05	0
15	-2e-05	2e-05	4e-05	-7e-05	-8e-05	-2e-05	-1e-05	-1e-05	0
16	-2e-05	2e-05	4e-05	-7e-05	-8e-05	-2e-05	-1e-05	-1e-05	0
17	-2e-05	2e-05	4e-05	-7e-05	-8e-05	-2e-05	-1e-05	-1e-05	0
18	-2e-05	2e-05	4e-05	-7e-05	-8e-05	-2e-05	-1e-05	-1e-05	0
19	0	1e-05	0	-8e-05	-8e-05	-2e-05	-3e-05	-2e-05	0
20	0	1e-05	0	-8e-05	-8e-05	-2e-05	-3e-05	-2e-05	0
21	0	1e-05	0	-8e-05	-8e-05	-2e-05	-3e-05	-2e-05	0
22	0	1e-05	0	-8e-05	-8e-05	-2e-05	-3e-05	-2e-05	0
23	0	1e-05	0	-8e-05	-8e-05	-2e-05	-3e-05	-2e-05	0
24	0	1e-05	0	-8e-05	-8e-05	-2e-05	-3e-05	-2e-05	0
25	0	1e-05	0	-8e-05	-8e-05	-2e-05	-3e-05	-2e-05	0
26	0	1e-05	0	-8e-05	-8e-05	-2e-05	-3e-05	-2e-05	0
27	0	1e-05	0	-8e-05	-8e-05	-2e-05	-3e-05	-2e-05	0
28	0	1e-05	0	-8e-05	-8e-05	-2e-05	-3e-05	-2e-05	0
29	0	1e-05	0	-8e-05	-8e-05	-2e-05	-3e-05	-2e-05	0
30	0	1e-05	0	-8e-05	-8e-05	-2e-05	-3e-05	-2e-05	0
31	0	1e-05	0	-8e-05	-8e-05	-2e-05	-3e-05	-2e-05	0
33	0	1e-05	0	-8e-05	-8e-05	-2e-05	-3e-05	-2e-05	0
34	0	2e-05	2e-05	-2e-05	-9e-05	-3e-05	-1e-05	0	0
35	0	2e-05	2e-05	-2e-05	-9e-05	-3e-05	-1e-05	0	0
44	-2e-05	-4e-05	-6e-05	-3e-05	-1e-05	0	-1e-05	-2e-05	0
45	-2e-05	-1e-05	-2e-05	-1e-05	7e-05	-1e-05	-1e-05	0	0
46	-2e-05	-1e-05	-2e-05	-1e-05	7e-05	-1e-05	-1e-05	0	0
48	-2e-05	-1e-05	-2e-05	-1e-05	7e-05	-1e-05	-1e-05	0	0
49	-1e-05	1e-05	2e-05	-2e-05	-5e-05	0	0	-2e-05	0
50	-1e-05	1e-05	2e-05	-2e-05	-5e-05	0	0	-2e-05	0
51	-1e-05	1e-05	2e-05	-2e-05	-5e-05	0	0	-2e-05	0
52	-1e-05	1e-05	2e-05	-2e-05	-5e-05	0	0	-2e-05	0
53	-1e-05	1e-05	2e-05	-2e-05	-5e-05	0	0	-2e-05	0
54	-1e-05	1e-05	2e-05	-2e-05	-5e-05	0	0	-2e-05	0
55	-1e-05	1e-05	2e-05	-2e-05	-5e-05	0	0	-2e-05	0
56	-1e-05	1e-05	2e-05	-2e-05	-5e-05	0	0	-2e-05	0
57	-1e-05	1e-05	2e-05	-2e-05	-5e-05	0	0	-2e-05	0
58	-1e-05	1e-05	2e-05	-2e-05	-5e-05	0	0	-2e-05	0
59	-1e-05	1e-05	2e-05	-2e-05	-5e-05	0	0	-2e-05	0
60	-1e-05	1e-05	2e-05	-2e-05	-5e-05	0	0	-2e-05	0
61	-1e-05	1e-05	2e-05	-2e-05	-5e-05	0	0	-2e-05	0
62	-1e-05	1e-05	2e-05	-2e-05	-5e-05	0	0	-2e-05	0
63	-1e-05	1e-05	2e-05	-2e-05	-5e-05	0	0	-2e-05	0
64	-1e-05	1e-05	2e-05	-2e-05	-5e-05	0	0	-2e-05	0
65	-1e-05	1e-05	2e-05	-2e-05	-5e-05	0	0	-2e-05	0
66	0	0	4e-05	8e-05	-8e-05	2e-05	-1e-05	1e-05	0
67	-2e-05	0	-1e-05	5e-05	0.00016	-1e-05	-1e-05	-1e-05	0
68	-1e-05	-3e-05	-3e-05	-4e-05	3e-05	-1e-05	0	-1e-05	0
69	-1e-05	-3e-05	-3e-05	-4e-05	3e-05	-1e-05	0	-1e-05	0
70	-1e-05	-3e-05	-3e-05	-4e-05	3e-05	-1e-05	0	-1e-05	0
71	-1e-05	-3e-05	-3e-05	-4e-05	3e-05	-1e-05	0	-1e-05	0
72	-1e-05	-3e-05	-3e-05	-4e-05	3e-05	-1e-05	0	-1e-05	0
73	-1e-05	-3e-05	-3e-05	-4e-05	3e-05	-1e-05	0	-1e-05	0
74	-1e-05	-3e-05	-3e-05	-4e-05	3e-05	-1e-05	0	-1e-05	0
75	-1e-05	-3e-05	-3e-05	-4e-05	3e-05	-1e-05	0	-1e-05	0
76	-1e-05	-3e-05	-3e-05	-4e-05	3e-05	-1e-05	0	-1e-05	0
77	-1e-05	-3e-05	-3e-05	-4e-05	3e-05	-1e-05	0	-1e-05	0
78	-1e-05	-3e-05	-3e-05	-4e-05	3e-05	-1e-05	0	-1e-05	0
79	0	-1e-05	-7e-05	0	0.00013	1e-05	0	0	0
80	0	-1e-05	-7e-05	0	0.00013	1e-05	0	0	0
81	0	-1e-05	-7e-05	0	0.00013	1e-05	0	0	0
82	0	-1e-05	-7e-05	0	0.00013	1e-05	0	0	0
83	0	-1e-05	-7e-05	0	0.00013	1e-05	0	0	0
84	0	-1e-05	-7e-05	0	0.00013	1e-05	0	0	0
85	0	-1e-05	-7e-05	0	0.00013	1e-05	0	0	0
86	0	-1e-05	-7e-05	0	0.00013	1e-05	0	0	0
89	0	-1e-05	-7e-05	0	0.00013	1e-05	0	0	0
90	0	-1e-05	-7e-05	0	0.00013	1e-05	0	0	0
91	0	-1e-05	-7e-05	0	0.00013	1e-05	0	0	0
92	0	-1e-05	-7e-05	0	0.00013	1e-05	0	0	0
93	0	-1e-05	-7e-05	0	0.00013	1e-05	0	0	0
94	0	-1e-05	-7e-05	0	0.00013	1e-05	0	0	0
95	0	-1e-05	-7e-05	0	0.00013	1e-05	0	0	0
96	-2e-05	-1e-05	-5e-05	-7e-05	-5e-05	-1e-05	-2e-05	1e-05	0
97	-2e-05	-1e-05	-5e-05	-7e-05	-5e-05	-1e-05	-2e-05	1e-05	0
98	-2e-05	-1e-05	-5e-05	-7e-05	-5e-05	-1e-05	-2e-05	1e-05	0
99	-2e-05	-1e-05	-5e-05	-7e-05	-5e-05	-1e-05	-2e-05	1e-05	0
100	-2e-05	-1e-05	-5e-05	-7e-05	-5e-05	-1e-05	-2e-05	1e-05	0
101	-2e-05	-1e-05	-5e-05	-7e-05	-5e-05	-1e-05	-2e-05	1e-05	0
102	-2e-05	-1e-05	-5e-05	-7e-05	-5e-05	-1e-05	-2e-05	1e-05	0
103	-2e-05	-3e-05	3e-05	0.00011	-2e-05	-1e-05	-1e-05	-2e-05	0
104	-2e-05	-3e-05	3e-05	0.00011	-2e-05	-1e-05	-1e-05	-2e-05	0
105	-2e-05	-4e-05	-7e-05	2e-05	8e-05	1e-05	0	-2e-05	0
106	-2e-05	-4e-05	-7e-05	2e-05	8e-05	1e-05	0	-2e-05	0
107	-2e-05	-4e-05	-7e-05	2e-05	8e-05	1e-05	0	-2e-05	0
108	-2e-05	-4e-05	-7e-05	2e-05	8e-05	1e-05	0	-2e-05	0
109	-2e-05	-4e-05	-7e-05	2e-05	8e-05	1e-05	0	-2e-05	0
110	-2e-05	-4e-05	-7e-05	2e-05	8e-05	1e-05	0	-2e-05	0
111	-2e-05	-4e-05	-7e-05	2e-05	8e-05	1e-05	0	-2e-05	0
112	-2e-05	-4e-05	-7e-05	2e-05	8e-05	1e-05	0	-2e-05	0
113	-2e-05	-4e-05	-7e-05	2e-05	8e-05	1e-05	0	-2e-05	0
114	-2e-05	-4e-05	-7e-05	2e-05	8e-05	1e-05	0	-2e-05	0
115	-2e-05	-4e-05	-7e-05	2e-05	8e-05	1e-05	0	-2e-05	0
116	-2e-05	-4e-05	-7e-05	2e-05	8e-05	1e-05	0	-2e-05	0
117	-2e-05	-4e-05	-7e-05	2e-05	8e-05	1e-05	0	-2e-05	0
118	-2e-05	-4e-05	-7e-05	2e-05	8e-05	1e-05	0	-2e-05	0
119	-2e-05	-4e-05	-7e-05	2e-05	8e-05	1e-05	0	-2e-05	0
120	-2e-05	-4e-05	-7e-05	2e-05	8e-05	1e-05	0	-2e-05	0
121	-2e-05	-4e-05	-7e-05	2e-05	8e-05	1e-05	0	-2e-05	0
122	-2e-05	-4e-05	-7e-05	2e-05	8e-05	1e-05	0	-2e-05	0
123	-2e-05	-4e-05	-7e-05	2e-05	8e-05	1e-05	0	-2e-05	0
124	-2e-05	-4e-05	-7e-05	2e-05	8e-05	1e-05	0	-2e-05	0
125	-2e-05	-4e-05	-7e-05	2e-05	8e-05	1e-05	0	-2e-05	0
126	-2e-05	-1e-05	2e-05	0	0.00012	-1e-05	0	-1e-05	0
127	1e-05	3e-05	6e-05	-0.0001	-0.00017	-2e-05	-2e-05	-2e-05	0
128	1e-05	3e-05	6e-05	-0.0001	-0.00017	-2e-05	-2e-05	-2e-05	0
129	1e-05	3e-05	6e-05	-0.0001	-0.00017	-2e-05	-2e-05	-2e-05	0
130	1e-05	3e-05	6e-05	-0.0001	-0.00017	-2e-05	-2e-05	-2e-05	0
131	1e-05	3e-05	6e-05	-0.0001	-0.00017	-2e-05	-2e-05	-2e-05	0
132	1e-05	3e-05	6e-05	-0.0001	-0.00017	-2e-05	-2e-05	-2e-05	0
133	1e-05	3e-05	6e-05	-0.0001	-0.00017	-2e-05	-2e-05	-2e-05	0
134	1e-05	3e-05	6e-05	-0.0001	-0.00017	-2e-05	-2e-05	-2e-05	0
135	1e-05	3e-05	6e-05	-0.0001	-0.00017	-2e-05	-2e-05	-2e-05	0
136	1e-05	3e-05	6e-05	-0.0001	-0.00017	-2e-05	-2e-05	-2e-05	0
138	1e-05	3e-05	6e-05	-0.0001	-0.00017	-2e-05	-2e-05	-2e-05	0
140	1e-05	3e-05	6e-05	-0.0001	-0.00017	-2e-05	-2e-05	-2e-05	0
141	1e-05	3e-05	6e-05	-0.0001	-0.00017	-2e-05	-2e-05	-2e-05	0
142	1e-05	3e-05	6e-05	-0.0001	-0.00017	-2e-05	-2e-05	-2e-05	0
143	1e-05	3e-05	6e-05	-0.0001	-0.00017	-2e-05	-2e-05	-2e-05	0
144	1e-05	3e-05	6e-05	-0.0001	-0.00017	-2e-05	-2e-05	-2e-05	0
145	1e-05	3e-05	6e-05	-0.0001	-0.00017	-2e-05	-2e-05	-2e-05	0
146	1e-05	3e-05	6e-05	-0.0001	-0.00017	-2e-05	-2e-05	-2e-05	0
147	1e-05	3e-05	6e-05	-0.0001	-0.00017	-2e-05	-2e-05	-2e-05	0
148	-2e-05	-5e-05	-7e-05	0.00011	9e-05	-1e-05	-1e-05	-3e-05	0
149	-1e-05	-1e-05	2e-05	-3e-05	-0.00013	-4e-05	0	-2e-05	0
150	0	-3e-05	3e-05	0.00011	3e-05	-1e-05	-2e-05	0	0
151	0	-3e-05	3e-05	0.00011	3e-05	-1e-05	-2e-05	0	0
152	0	-3e-05	3e-05	0.00011	3e-05	-1e-05	-2e-05	0	0
154	0	-3e-05	3e-05	0.00011	3e-05	-1e-05	-2e-05	0	0
155	0	-3e-05	3e-05	0.00011	3e-05	-1e-05	-2e-05	0	0
156	0	-3e-05	3e-05	0.00011	3e-05	-1e-05	-2e-05	0	0
157	0	-3e-05	3e-05	0.00011	3e-05	-1e-05	-2e-05	0	0
158	0	-3e-05	3e-05	0.00011	3e-05	-1e-05	-2e-05	0	0
159	0	-3e-05	3e-05	0.00011	3e-05	-1e-05	-2e-05	0	0
160	0	-3e-05	3e-05	0.00011	3e-05	-1e-05	-2e-05	0	0
161	0	-3e-05	3e-05	0.00011	3e-05	-1e-05	-2e-05	0	0
162	0	-3e-05	3e-05	0.00011	3e-05	-1e-05	-2e-05	0	0
163	0	1e-05	-4e-05	0	5e-05	-1e-05	0	-2e-05	0
164	0	1e-05	-4e-05	0	5e-05	-1e-05	0	-2e-05	0
165	-3e-05	-2e-05	-4e-05	-8e-05	-9e-05	0	0	-1e-05	0
166	-3e-05	-2e-05	-4e-05	-8e-05	-9e-05	0	0	-1e-05	0
167	-3e-05	-2e-05	-4e-05	-8e-05	-9e-05	0	0	-1e-05	0
168	-3e-05	-2e-05	-4e-05	-8e-05	-9e-05	0	0	-1e-05	0
169	-3e-05	-2e-05	-4e-05	-8e-05	-9e-05	0	0	-1e-05	0
170	-3e-05	-2e-05	-4e-05	-8e-05	-9e-05	0	0	-1e-05	0
171	-3e-05	-2e-05	-4e-05	-8e-05	-9e-05	0	0	-1e-05	0
172	-3e-05	-2e-05	-4e-05	-8e-05	-9e-05	0	0	-1e-05	0
173	-3e-05	-2e-05	-4e-05	-8e-05	-9e-05	0	0	-1e-05	0
174	-3e-05	-2e-05	-4e-05	-8e-05	-9e-05	0	0	-1e-05	0
175	-3e-05	-2e-05	-4e-05	-8e-05	-9e-05	0	0	-1e-05	0
176	-3e-05	-2e-05	-4e-05	-8e-05	-9e-05	0	0	-1e-05	0
177	-3e-05	-2e-05	-4e-05	-8e-05	-9e-05	0	0	-1e-05	0
178	-3e-05	-2e-05	-4e-05	-8e-05	-9e-05	0	0	-1e-05	0
179	-3e-05	-2e-05	-4e-05	-8e-05	-9e-05	0	0	-1e-05	0
180	-3e-05	-2e-05	-4e-05	-8e-05	-9e-05	0	0	-1e-05	0
181	-3e-05	-2e-05	-4e-05	-8e-05	-9e-05	0	0	-1e-05	0
182	-3e-05	-2e-05	-4e-05	-8e-05	-9e-05	0	0	-1e-05	0
183	-3e-05	-2e-05	-4e-05	-8e-05	-9e-05	0	0	-1e-05	0
184	-3e-05	-2e-05	-4e-05	-8e-05	-9e-05	0	0	-1e-05	0
185	-3e-05	-2e-05	-4e-05	-8e-05	-9e-05	0	0	-1e-05	0
186	0	-1e-05	-2e-05	-6e-05	-0.00015	-1e-05	-2e-05	-1e-05	0
188	-1e-05	-2e-05	-6e-05	2e-05	0.00012	1e-05	0	-1e-05	0
190	-1e-05	-2e-05	-6e-05	2e-05	0.00012	1e-05	0	-1e-05	0
191	-1e-05	-2e-05	-6e-05	2e-05	0.00012	1e-05	0	-1e-05	0
192	-1e-05	-2e-05	-6e-05	2e-05	0.00012	1e-05	0	-1e-05	0
193	-1e-05	-2e-05	-6e-05	2e-05	0.00012	1e-05	0	-1e-05	0
194	-1e-05	-2e-05	-6e-05	2e-05	0.00012	1e-05	0	-1e-05	0
195	-1e-05	-2e-05	-6e-05	2e-05	0.00012	1e-05	0	-1e-05	0
196	-1e-05	-2e-05	-6e-05	2e-05	0.00012	1e-05	0	-1e-05	0
197	-1e-05	-2e-05	-6e-05	2e-05	0.00012	1e-05	0	-1e-05	0
198	-1e-05	-2e-05	-6e-05	2e-05	0.00012	1e-05	0	-1e-05	0
199	-1e-05	-2e-05	-6e-05	2e-05	0.00012	1e-05	0	-1e-05	0
200	-1e-05	-2e-05	-6e-05	2e-05	0.00012	1e-05	0	-1e-05	0
201	-1e-05	-2e-05	-6e-05	2e-05	0.00012	1e-05	0	-1e-05	0
202	-1e-05	-2e-05	-6e-05	2e-05	0.00012	1e-05	0	-1e-05	0
203	-1e-05	-2e-05	-6e-05	2e-05	0.00012	1e-05	0	-1e-05	0
204	-1e-05	-2e-05	-6e-05	2e-05	0.00012	1e-05	0	-1e-05	0
205	-1e-05	-2e-05	-6e-05	2e-05	0.00012	1e-05	0	-1e-05	0
206	-1e-05	-2e-05	-6e-05	2e-05	0.00012	1e-05	0	-1e-05	0
207	-1e-05	-2e-05	-6e-05	2e-05	0.00012	1e-05	0	-1e-05	0
208	-2e-05	0	1e-05	-1e-05	-8e-05	-1e-05	-1e-05	-1e-05	0
209	-2e-05	0	1e-05	-1e-05	-8e-05	-1e-05	-1e-05	-1e-05	0
210	-2e-05	-3e-05	-8e-05	-6e-05	-6e-05	-2e-05	-1e-05	1e-05	0
211	-1e-05	0	0	5e-05	-4e-05	-1e-05	-3e-05	-3e-05	0
212	-1e-05	0	0	5e-05	-4e-05	-1e-05	-3e-05	-3e-05	0
213	-1e-05	0	0	5e-05	-4e-05	-1e-05	-3e-05	-3e-05	0
214	-1e-05	0	0	5e-05	-4e-05	-1e-05	-3e-05	-3e-05	0
215	-1e-05	0	0	5e-05	-4e-05	-1e-05	-3e-05	-3e-05	0
216	-1e-05	0	0	5e-05	-4e-05	-1e-05	-3e-05	-3e-05	0
217	-1e-05	0	0	5e-05	-4e-05	-1e-05	-3e-05	-3e-05	0
218	-1e-05	0	0	5e-05	-4e-05	-1e-05	-3e-05	-3e-05	0
219	-1e-05	0	0	5e-05	-4e-05	-1e-05	-3e-05	-3e-05	0
220	-1e-05	0	0	5e-05	-4e-05	-1e-05	-3e-05	-3e-05	0
221	-1e-05	0	0	5e-05	-4e-05	-1e-05	-3e-05	-3e-05	0
222	-1e-05	0	0	5e-05	-4e-05	-1e-05	-3e-05	-3e-05	0
223	-2e-05	-2e-05	-4e-05	-4e-05	6e-05	-3e-05	-3e-05	0	0
224	-2e-05	-2e-05	-4e-05	-4e-05	6e-05	-3e-05	-3e-05	0	0
225	1e-05	-2e-05	0	1e-05	1e-05	-1e-05	2e-05	0	0
226	1e-05	-2e-05	0	1e-05	1e-05	-1e-05	2e-05	0	0
227	1e-05	-2e-05	0	1e-05	1e-05	-1e-05	2e-05	0	0
228	1e-05	-2e-05	0	1e-05	1e-05	-1e-05	2e-05	0	0
229	1e-05	-2e-05	0	1e-05	1e-05	-1e-05	2e-05	0	0
230	1e-05	-2e-05	0	1e-05	1e-05	-1e-05	2e-05	0	0
231	1e-05	-2e-05	0	1e-05	1e-05	-1e-05	2e-05	0	0
232	1e-05	-2e-05	0	1e-05	1e-05	-1e-05	2e-05	0	0
233	1e-05	-2e-05	0	1e-05	1e-05	-1e-05	2e-05	0	0
234	1e-05	-2e-05	0	1e-05	1e-05	-1e-05	2e-05	0	0
235	1e-05	-2e-05	0	1e-05	1e-05	-1e-05	2e-05	0	0
236	1e-05	-2e-05	0	1e-05	1e-05	-1e-05	2e-05	0	0
239	1e-05	-2e-05	0	1e-05	1e-05	-1e-05	2e-05	0	0
240	1e-05	-2e-05	0	1e-05	1e-05	-1e-05	2e-05	0	0
241	1e-05	-2e-05	0	1e-05	1e-05	-1e-05	2e-05	0	0
242	1e-05	-2e-05	0	1e-05	1e-05	-1e-05	2e-05	0	0
243	1e-05	-2e-05	0	1e-05	1e-05	-1e-05	2e-05	0	0
244	1e-05	-2e-05	0	1e-05	1e-05	-1e-05	2e-05	0	0
245	1e-05	-2e-05	0	1e-05	1e-05	-1e-05	2e-05	0	0
246	1e-05	2e-05	-6e-05	-7e-05	1e-05	-1e-05	-1e-05	0	0
247	-4e-05	-5e-05	-5e-05	-2e-05	-0.0001	-3e-05	-1e-05	-1e-05	0
248	-4e-05	-5e-05	-5e-05	-2e-05	-0.0001	-3e-05	-1e-05	-1e-05	0
249	-4e-05	-5e-05	-5e-05	-2e-05	-0.0001	-3e-05	-1e-05	-1e-05	0
250	-4e-05	-5e-05	-5e-05	-2e-05	-0.0001	-3e-05	-1e-05	-1e-05	0
251	-4e-05	-5e-05	-5e-05	-2e-05	-0.0001	-3e-05	-1e-05	-1e-05	0
252	-4e-05	-5e-05	-5e-05	-2e-05	-0.0001	-3e-05	-1e-05	-1e-05	0
255	-4e-05	-5e-05	-5e-05	-2e-05	-0.0001	-3e-05	-1e-05	-1e-05	0
256	-4e-05	-5e-05	-5e-05	-2e-05	-0.0001	-3e-05	-1e-05	-1e-05	0
257	-4e-05	-5e-05	-5e-05	-2e-05	-0.0001	-3e-05	-1e-05	-1e-05	0
258	-4e-05	-5e-05	-5e-05	-2e-05	-0.0001	-3e-05	-1e-05	-1e-05	0
259	-4e-05	-5e-05	-5e-05	-2e-05	-0.0001	-3e-05	-1e-05	-1e-05	0
260	-4e-05	-5e-05	-5e-05	-2e-05	-0.0001	-3e-05	-1e-05	-1e-05	0
261	-4e-05	-5e-05	-5e-05	-2e-05	-0.0001	-3e-05	-1e-05	-1e-05	0
262	-4e-05	-5e-05	-5e-05	-2e-05	-0.0001	-3e-05	-1e-05	-1e-05	0
263	-4e-05	-5e-05	-5e-05	-2e-05	-0.0001	-3e-05	-1e-05	-1e-05	0
264	-4e-05	-5e-05	-5e-05	-2e-05	-0.0001	-3e-05	-1e-05	-1e-05	0
265	-4e-05	-5e-05	-5e-05	-2e-05	-0.0001	-3e-05	-1e-05	-1e-05	0
266	-4e-05	-5e-05	-5e-05	-2e-05	-0.0001	-3e-05	-1e-05	-1e-05	0
267	-4e-05	-5e-05	-5e-05	-2e-05	-0.0001	-3e-05	-1e-05	-1e-05	0
268	-1e-05	-1e-05	-2e-05	1e-05	8e-05	2e-05	0	1e-05	0
269	-1e-05	-1e-05	-2e-05	1e-05	8e-05	2e-05	0	1e-05	0
270	-1e-05	-1e-05	0	-1e-05	-8e-05	-1e-05	-2e-05	-1e-05	0
271	-1e-05	-1e-05	0	-1e-05	-8e-05	-1e-05	-2e-05	-1e-05	0
272	-1e-05	-1e-05	0	-1e-05	-8e-05	-1e-05	-2e-05	-1e-05	0
273	-1e-05	-1e-05	0	-1e-05	-8e-05	-1e-05	-2e-05	-1e-05	0
274	-1e-05	-1e-05	0	-1e-05	-8e-05	-1e-05	-2e-05	-1e-05	0
275	-1e-05	-1e-05	0	-1e-05	-8e-05	-1e-05	-2e-05	-1e-05	0
276	-1e-05	-1e-05	0	-1e-05	-8e-05	-1e-05	-2e-05	-1e-05	0
277	-1e-05	-1e-05	0	-1e-05	-8e-05	-1e-05	-2e-05	-1e-05	0
278	-1e-05	-1e-05	0	-1e-05	-8e-05	-1e-05	-2e-05	-1e-05	0
279	-1e-05	-1e-05	0	-1e-05	-8e-05	-1e-05	-2e-05	-1e-05	0
280	-1e-05	-1e-05	0	-1e-05	-8e-05	-1e-05	-2e-05	-1e-05	0
281	-1e-05	-1e-05	0	-1e-05	-8e-05	-1e-05	-2e-05	-1e-05	0
282	-1e-05	-1e-05	0	-1e-05	-8e-05	-1e-05	-2e-05	-1e-05	0
283	-2e-05	1e-05	0	-4e-05	-2e-05	-2e-05	-2e-05	-2e-05	0
284	-2e-05	1e-05	0	-4e-05	-2e-05	-2e-05	-2e-05	-2e-05	0
285	-2e-05	1e-05	0	-4e-05	-2e-05	-2e-05	-2e-05	-2e-05	0
287	-2e-05	1e-05	0	-4e-05	-2e-05	-2e-05	-2e-05	-2e-05	0
290	-1e-05	-4e-05	0	0.00018	0.00016	-2e-05	-1e-05	-3e-05	0
291	-1e-05	-4e-05	0	0.00018	0.00016	-2e-05	-1e-05	-3e-05	0
292	-1e-05	-4e-05	0	0.00018	0.00016	-2e-05	-1e-05	-3e-05	0
293	-1e-05	-4e-05	0	0.00018	0.00016	-2e-05	-1e-05	-3e-05	0
294	-1e-05	-4e-05	0	0.00018	0.00016	-2e-05	-1e-05	-3e-05	0
295	-1e-05	-4e-05	0	0.00018	0.00016	-2e-05	-1e-05	-3e-05	0
296	-1e-05	-4e-05	0	0.00018	0.00016	-2e-05	-1e-05	-3e-05	0
297	-1e-05	-4e-05	0	0.00018	0.00016	-2e-05	-1e-05	-3e-05	0
298	-1e-05	-4e-05	0	0.00018	0.00016	-2e-05	-1e-05	-3e-05	0
299	-1e-05	-4e-05	0	0.00018	0.00016	-2e-05	-1e-05	-3e-05	0
300	-1e-05	-4e-05	0	0.00018	0.00016	-2e-05	-1e-05	-3e-05	0
301	-1e-05	-4e-05	0	0.00018	0.00016	-2e-05	-1e-05	-3e-05	0
302	-1e-05	-4e-05	0	0.00018	0.00016	-2e-05	-1e-05	-3e-05	0
303	-1e-05	-4e-05	0	0.00018	0.00016	-2e-05	-1e-05	-3e-05	0
304	-1e-05	-4e-05	0	0.00018	0.00016	-2e-05	-1e-05	-3e-05	0
305	-1e-05	-1e-05	-3e-05	-4e-05	-0.0001	-1e-05	0	-2e-05	0
306	-1e-05	1e-05	6e-05	2e-05	2e-05	0	-2e-05	0	0
307	-1e-05	1e-05	6e-05	2e-05	2e-05	0	-2e-05	0	0
308	-1e-05	1e-05	6e-05	2e-05	2e-05	0	-2e-05	0	0
309	-1e-05	1e-05	6e-05	2e-05	2e-05	0	-2e-05	0	0
310	-1e-05	1e-05	6e-05	2e-05	2e-05	0	-2e-05	0	0
311	-1e-05	1e-05	6e-05	2e-05	2e-05	0	-2e-05	0	0
312	0	1e-05	3e-05	-4e-05	0.0001	-2e-05	-2e-05	-1e-05	0
313	0	1e-05	3e-05	-4e-05	0.0001	-2e-05	-2e-05	-1e-05	0
314	0	1e-05	3e-05	-4e-05	0.0001	-2e-05	-2e-05	-1e-05	0
315	0	1e-05	3e-05	-4e-05	0.0001	-2e-05	-2e-05	-1e-05	0
316	0	1e-05	3e-05	-4e-05	0.0001	-2e-05	-2e-05	-1e-05	0
317	0	1e-05	3e-05	-4e-05	0.0001	-2e-05	-2e-05	-1e-05	0
318	0	1e-05	3e-05	-4e-05	0.0001	-2e-05	-2e-05	-1e-05	0
319	0	1e-05	3e-05	-4e-05	0.0001	-2e-05	-2e-05	-1e-05	0
320	0	1e-05	3e-05	-4e-05	0.0001	-2e-05	-2e-05	-1e-05	0
321	0	1e-05	3e-05	-4e-05	0.0001	-2e-05	-2e-05	-1e-05	0
322	0	1e-05	3e-05	-4e-05	0.0001	-2e-05	-2e-05	-1e-05	0
323	0	1e-05	3e-05	-4e-05	0.0001	-2e-05	-2e-05	-1e-05	0
324	0	1e-05	3e-05	-4e-05	0.0001	-2e-05	-2e-05	-1e-05	0
325	0	1e-05	3e-05	-4e-05	0.0001	-2e-05	-2e-05	-1e-05	0
326	0	1e-05	3e-05	-4e-05	0.0001	-2e-05	-2e-05	-1e-05	0
327	0	1e-05	3e-05	-4e-05	0.0001	-2e-05	-2e-05	-1e-05	0
328	0	-1e-05	-2e-05	-4e-05	-7e-05	2e-05	0	-1e-05	0
329	0	-1e-05	-2e-05	-4e-05	-7e-05	2e-05	0	-1e-05	0
330	-1e-05	-2e-05	-2e-05	-3e-05	-4e-05	-1e-05	-1e-05	-1e-05	0
331	-1e-05	-2e-05	-2e-05	-3e-05	-4e-05	-1e-05	-1e-05	-1e-05	0
332	-1e-05	-2e-05	-2e-05	-3e-05	-4e-05	-1e-05	-1e-05	-1e-05	0
333	-1e-05	-2e-05	-2e-05	-3e-05	-4e-05	-1e-05	-1e-05	-1e-05	0
334	-1e-05	-2e-05	-2e-05	-3e-05	-4e-05	-1e-05	-1e-05	-1e-05	0
335	-1e-05	-2e-05	-2e-05	-3e-05	-4e-05	-1e-05	-1e-05	-1e-05	0
336	-1e-05	-2e-05	-2e-05	-3e-05	-4e-05	-1e-05	-1e-05	-1e-05	0
338	-1e-05	-2e-05	-2e-05	-3e-05	-4e-05	-1e-05	-1e-05	-1e-05	0
339	-1e-05	-2e-05	-2e-05	-3e-05	-4e-05	-1e-05	-1e-05	-1e-05	0
340	-1e-05	-2e-05	-2e-05	-3e-05	-4e-05	-1e-05	-1e-05	-1e-05	0
341	-1e-05	-2e-05	-2e-05	-3e-05	-4e-05	-1e-05	-1e-05	-1e-05	0
342	-1e-05	-2e-05	-2e-05	-3e-05	-4e-05	-1e-05	-1e-05	-1e-05	0
343	-1e-05	-2e-05	-2e-05	3e-05	7e-05	0	1e-05	-1e-05	0
344	-1e-05	-2e-05	-2e-05	3e-05	7e-05	0	1e-05	-1e-05	0
345	-1e-05	-2e-05	-2e-05	3e-05	7e-05	0	1e-05	-1e-05	0
346	-1e-05	-2e-05	-2e-05	3e-05	7e-05	0	1e-05	-1e-05	0
347	-1e-05	-2e-05	-2e-05	3e-05	7e-05	0	1e-05	-1e-05	0
348	-1e-05	-2e-05	-2e-05	3e-05	7e-05	0	1e-05	-1e-05	0
349	-1e-05	0	-2e-05	-9e-05	-9e-05	-1e-05	-2e-05	-2e-05	0
350	-1e-05	0	-2e-05	-9e-05	-9e-05	-1e-05	-2e-05	-2e-05	0
351	-1e-05	0	-2e-05	-9e-05	-9e-05	-1e-05	-2e-05	-2e-05	0
352	-1e-05	0	-2e-05	-9e-05	-9e-05	-1e-05	-2e-05	-2e-05	0
353	-1e-05	0	-2e-05	-9e-05	-9e-05	-1e-05	-2e-05	-2e-05	0
354	-1e-05	0	-2e-05	-9e-05	-9e-05	-1e-05	-2e-05	-2e-05	0
355	-1e-05	0	-2e-05	-9e-05	-9e-05	-1e-05	-2e-05	-2e-05	0
356	-1e-05	0	-2e-05	-9e-05	-9e-05	-1e-05	-2e-05	-2e-05	0
357	-1e-05	0	-2e-05	-9e-05	-9e-05	-1e-05	-2e-05	-2e-05	0
358	-1e-05	0	-2e-05	-9e-05	-9e-05	-1e-05	-2e-05	-2e-05	0
359	-1e-05	0	-2e-05	-9e-05	-9e-05	-1e-05	-2e-05	-2e-05	0
360	-1e-05	0	-2e-05	-9e-05	-9e-05	-1e-05	-2e-05	-2e-05	0
361	-1e-05	0	-2e-05	-9e-05	-9e-05	-1e-05	-2e-05	-2e-05	0
362	-1e-05	0	-2e-05	-9e-05	-9e-05	-1e-05	-2e-05	-2e-05	0
363	-1e-05	0	-2e-05	-9e-05	-9e-05	-1e-05	-2e-05	-2e-05	0
364	-1e-05	0	-2e-05	-9e-05	-9e-05	-1e-05	-2e-05	-2e-05	0
365	-1e-05	0	-2e-05	-9e-05	-9e-05	-1e-05	-2e-05	-2e-05	0
366	-1e-05	-3e-05	1e-05	1e-05	-7e-05	-2e-05	0	0	0
367	-1e-05	2e-05	-3e-05	-9e-05	-7e-05	-2e-05	1e-05	1e-05	0
368	-1e-05	2e-05	-3e-05	-9e-05	-7e-05	-2e-05	1e-05	1e-05	0
369	-1e-05	2e-05	-3e-05	-9e-05	-7e-05	-2e-05	1e-05	1e-05	0
370	-1e-05	2e-05	-3e-05	-9e-05	-7e-05	-2e-05	1e-05	1e-05	0
371	-1e-05	2e-05	-3e-05	-9e-05	-7e-05	-2e-05	1e-05	1e-05	0
372	-1e-05	2e-05	-3e-05	-9e-05	-7e-05	-2e-05	1e-05	1e-05	0
373	-1e-05	2e-05	-3e-05	-9e-05	-7e-05	-2e-05	1e-05	1e-05	0
374	-1e-05	2e-05	-3e-05	-9e-05	-7e-05	-2e-05	1e-05	1e-05	0
376	-1e-05	2e-05	-3e-05	-9e-05	-7e-05	-2e-05	1e-05	1e-05	0
377	-1e-05	2e-05	-3e-05	-9e-05	-7e-05	-2e-05	1e-05	1e-05	0
378	-1e-05	2e-05	-3e-05	-9e-05	-7e-05	-2e-05	1e-05	1e-05	0
379	-1e-05	2e-05	-3e-05	-9e-05	-7e-05	-2e-05	1e-05	1e-05	0
380	-1e-05	2e-05	-3e-05	-9e-05	-7e-05	-2e-05	1e-05	1e-05	0
381	-1e-05	2e-05	-3e-05	-9e-05	-7e-05	-2e-05	1e-05	1e-05	0
382	-1e-05	2e-05	-3e-05	-9e-05	-7e-05	-2e-05	1e-05	1e-05	0
384	-1e-05	2e-05	-3e-05	-9e-05	-7e-05	-2e-05	1e-05	1e-05	0
385	-1e-05	2e-05	-3e-05	-9e-05	-7e-05	-2e-05	1e-05	1e-05	0
386	-1e-05	2e-05	-3e-05	-9e-05	-7e-05	-2e-05	1e-05	1e-05	0
389	-2e-05	0	-2e-05	0.00011	-1e-05	1e-05	0	0	0
390	-2e-05	0	-2e-05	0.00011	-1e-05	1e-05	0	0	0
392	-1e-05	-1e-05	-9e-05	-9e-05	-2e-05	-2e-05	-2e-05	0	0
393	-1e-05	-1e-05	-9e-05	-9e-05	-2e-05	-2e-05	-2e-05	0	0
394	-1e-05	-1e-05	-9e-05	-9e-05	-2e-05	-2e-05	-2e-05	0	0
395	-1e-05	-1e-05	-9e-05	-9e-05	-2e-05	-2e-05	-2e-05	0	0
396	-1e-05	-1e-05	-9e-05	-9e-05	-2e-05	-2e-05	-2e-05	0	0
397	-1e-05	-1e-05	-9e-05	-9e-05	-2e-05	-2e-05	-2e-05	0	0
398	-1e-05	-1e-05	-9e-05	-9e-05	-2e-05	-2e-05	-2e-05	0	0
400	-1e-05	-1e-05	-9e-05	-9e-05	-2e-05	-2e-05	-2e-05	0	0
401	-1e-05	-1e-05	-9e-05	-9e-05	-2e-05	-2e-05	-2e-05	0	0
402	-1e-05	-1e-05	-9e-05	-9e-05	-2e-05	-2e-05	-2e-05	0	0
403	-2e-05	-1e-05	-2e-05	-7e-05	-6e-05	-1e-05	-2e-05	-2e-05	0
404	-2e-05	-1e-05	-2e-05	-7e-05	-6e-05	-1e-05	-2e-05	-2e-05	0
405	-2e-05	-1e-05	-2e-05	-7e-05	-6e-05	-1e-05	-2e-05	-2e-05	0
406	-2e-05	-1e-05	-2e-05	-7e-05	-6e-05	-1e-05	-2e-05	-2e-05	0
407	-2e-05	-1e-05	-2e-05	-7e-05	-6e-05	-1e-05	-2e-05	-2e-05	0
408	-2e-05	-1e-05	-2e-05	-7e-05	-6e-05	-1e-05	-2e-05	-2e-05	0
409	-1e-05	2e-05	4e-05	7e-05	4e-05	2e-05	-1e-05	-1e-05	0
410	-1e-05	2e-05	4e-05	7e-05	4e-05	2e-05	-1e-05	-1e-05	0
411	-1e-05	2e-05	4e-05	7e-05	4e-05	2e-05	-1e-05	-1e-05	0
412	-1e-05	2e-05	4e-05	7e-05	4e-05	2e-05	-1e-05	-1e-05	0
413	-1e-05	2e-05	4e-05	7e-05	4e-05	2e-05	-1e-05	-1e-05	0
414	-1e-05	2e-05	4e-05	7e-05	4e-05	2e-05	-1e-05	-1e-05	0
415	-1e-05	2e-05	4e-05	7e-05	4e-05	2e-05	-1e-05	-1e-05	0
416	-1e-05	2e-05	4e-05	7e-05	4e-05	2e-05	-1e-05	-1e-05	0
417	-1e-05	2e-05	4e-05	7e-05	4e-05	2e-05	-1e-05	-1e-05	0
418	-1e-05	2e-05	4e-05	7e-05	4e-05	2e-05	-1e-05	-1e-05	0
419	-1e-05	2e-05	4e-05	7e-05	4e-05	2e-05	-1e-05	-1e-05	0
420	-1e-05	2e-05	4e-05	7e-05	4e-05	2e-05	-1e-05	-1e-05	0
421	-1e-05	2e-05	4e-05	7e-05	4e-05	2e-05	-1e-05	-1e-05	0
422	-1e-05	2e-05	4e-05	7e-05	4e-05	2e-05	-1e-05	-1e-05	0
423	-1e-05	2e-05	4e-05	7e-05	4e-05	2e-05	-1e-05	-1e-05	0
424	-1e-05	2e-05	4e-05	7e-05	4e-05	2e-05	-1e-05	-1e-05	0
425	-1e-05	2e-05	4e-05	7e-05	4e-05	2e-05	-1e-05	-1e-05	0
426	-2e-05	-4e-05	-3e-05	7e-05	0.00017	1e-05	0	0	0
427	-2e-05	-4e-05	-3e-05	7e-05	0.00017	1e-05	0	0	0
428	0	-2e-05	-7e-05	-7e-05	-6e-05	0	1e-05	-2e-05	0
429	0	-2e-05	-7e-05	-7e-05	-6e-05	0	1e-05	-2e-05	0
430	0	-2e-05	-7e-05	-7e-05	-6e-05	0	1e-05	-2e-05	0
431	0	-2e-05	-7e-05	-7e-05	-6e-05	0	1e-05	-2e-05	0
432	0	-2e-05	-7e-05	-7e-05	-6e-05	0	1e-05	-2e-05	0
433	0	-2e-05	-7e-05	-7e-05	-6e-05	0	1e-05	-2e-05	0
434	0	-2e-05	-7e-05	-7e-05	-6e-05	0	1e-05	-2e-05	0
435	0	-2e-05	-7e-05	-7e-05	-6e-05	0	1e-05	-2e-05	0
436	0	-2e-05	-7e-05	-7e-05	-6e-05	0	1e-05	-2e-05	0
439	0	-2e-05	-7e-05	-7e-05	-6e-05	0	1e-05	-2e-05	0
440	0	-2e-05	-7e-05	-7e-05	-6e-05	0	1e-05	-2e-05	0
441	0	-2e-05	-7e-05	-7e-05	-6e-05	0	1e-05	-2e-05	0
442	0	-2e-05	-7e-05	-7e-05	-6e-05	0	1e-05	-2e-05	0
443	0	-2e-05	-7e-05	-7e-05	-6e-05	0	1e-05	-2e-05	0
444	0	-2e-05	-7e-05	-7e-05	-6e-05	0	1e-05	-2e-05	0
445	0	-2e-05	-7e-05	-7e-05	-6e-05	0	1e-05	-2e-05	0
446	0	-2e-05	-7e-05	-7e-05	-6e-05	0	1e-05	-2e-05	0
447	0	-2e-05	-7e-05	-7e-05	-6e-05	0	1e-05	-2e-05	0
448	-1e-05	2e-05	0	-7e-05	-2e-05	-1e-05	-1e-05	-1e-05	0
449	-1e-05	2e-05	0	-7e-05	-2e-05	-1e-05	-1e-05	-1e-05	0
450	-4e-05	-4e-05	-7e-05	-5e-05	-9e-05	1e-05	-1e-05	-1e-05	0
451	-4e-05	-4e-05	-7e-05	-5e-05	-9e-05	1e-05	-1e-05	-1e-05	0
452	-4e-05	-4e-05	-7e-05	-5e-05	-9e-05	1e-05	-1e-05	-1e-05	0
453	-4e-05	-4e-05	-7e-05	-5e-05	-9e-05	1e-05	-1e-05	-1e-05	0
454	-4e-05	-4e-05	-7e-05	-5e-05	-9e-05	1e-05	-1e-05	-1e-05	0
455	-4e-05	-4e-05	-7e-05	-5e-05	-9e-05	1e-05	-1e-05	-1e-05	0
457	-4e-05	-4e-05	-7e-05	-5e-05	-9e-05	1e-05	-1e-05	-1e-05	0
458	-4e-05	-4e-05	-7e-05	-5e-05	-9e-05	1e-05	-1e-05	-1e-05	0
459	-4e-05	-4e-05	-7e-05	-5e-05	-9e-05	1e-05	-1e-05	-1e-05	0
460	-4e-05	-4e-05	-7e-05	-5e-05	-9e-05	1e-05	-1e-05	-1e-05	0
461	-4e-05	-4e-05	-7e-05	-5e-05	-9e-05	1e-05	-1e-05	-1e-05	0
462	-4e-05	-4e-05	-7e-05	-5e-05	-9e-05	1e-05	-1e-05	-1e-05	0
463	-1e-05	-1e-05	0	-9e-05	-6e-05	-2e-05	-1e-05	0	0
464	-1e-05	-1e-05	0	-9e-05	-6e-05	-2e-05	-1e-05	0	0
465	-1e-05	-1e-05	0	-9e-05	-6e-05	-2e-05	-1e-05	0	0
466	-1e-05	-1e-05	0	-9e-05	-6e-05	-2e-05	-1e-05	0	0
467	-1e-05	-1e-05	0	-9e-05	-6e-05	-2e-05	-1e-05	0	0
468	-1e-05	-1e-05	0	-9e-05	-6e-05	-2e-05	-1e-05	0	0
469	1e-05	-3e-05	4e-05	6e-05	-5e-05	-3e-05	-2e-05	-1e-05	0
470	1e-05	-3e-05	4e-05	6e-05	-5e-05	-3e-05	-2e-05	-1e-05	0
471	1e-05	-3e-05	4e-05	6e-05	-5e-05	-3e-05	-2e-05	-1e-05	0
472	1e-05	-3e-05	4e-05	6e-05	-5e-05	-3e-05	-2e-05	-1e-05	0
473	1e-05	-3e-05	4e-05	6e-05	-5e-05	-3e-05	-2e-05	-1e-05	0
474	1e-05	-3e-05	4e-05	6e-05	-5e-05	-3e-05	-2e-05	-1e-05	0
475	1e-05	-3e-05	4e-05	6e-05	-5e-05	-3e-05	-2e-05	-1e-05	0
476	1e-05	-3e-05	4e-05	6e-05	-5e-05	-3e-05	-2e-05	-1e-05	0
477	1e-05	-3e-05	4e-05	6e-05	-5e-05	-3e-05	-2e-05	-1e-05	0
478	1e-05	-3e-05	4e-05	6e-05	-5e-05	-3e-05	-2e-05	-1e-05	0
479	1e-05	-3e-05	4e-05	6e-05	-5e-05	-3e-05	-2e-05	-1e-05	0
480	1e-05	-3e-05	4e-05	6e-05	-5e-05	-3e-05	-2e-05	-1e-05	0
481	1e-05	-3e-05	4e-05	6e-05	-5e-05	-3e-05	-2e-05	-1e-05	0
482	1e-05	-3e-05	4e-05	6e-05	-5e-05	-3e-05	-2e-05	-1e-05	0
483	1e-05	-3e-05	4e-05	6e-05	-5e-05	-3e-05	-2e-05	-1e-05	0
484	1e-05	-3e-05	4e-05	6e-05	-5e-05	-3e-05	-2e-05	-1e-05	0
485	1e-05	-3e-05	4e-05	6e-05	-5e-05	-3e-05	-2e-05	-1e-05	0
486	-2e-05	-5e-05	-0.0001	-4e-05	-1e-05	-1e-05	-1e-05	0	0
488	-1e-05	0	0	-2e-05	1e-05	-1e-05	-3e-05	0	0
489	-1e-05	0	0	-2e-05	1e-05	-1e-05	-3e-05	0	0
490	-1e-05	0	0	-2e-05	1e-05	-1e-05	-3e-05	0	0
491	-1e-05	0	0	-2e-05	1e-05	-1e-05	-3e-05	0	0
492	-1e-05	0	0	-2e-05	1e-05	-1e-05	-3e-05	0	0
493	-1e-05	0	0	-2e-05	1e-05	-1e-05	-3e-05	0	0
494	-1e-05	0	0	-2e-05	1e-05	-1e-05	-3e-05	0	0
495	-1e-05	0	0	-2e-05	1e-05	-1e-05	-3e-05	0	0
496	-1e-05	0	0	-2e-05	1e-05	-1e-05	-3e-05	0	0
497	-1e-05	0	0	-2e-05	1e-05	-1e-05	-3e-05	0	0
498	-1e-05	0	0	-2e-05	1e-05	-1e-05	-3e-05	0	0
499	-1e-05	0	0	-2e-05	1e-05	-1e-05	-3e-05	0	0
500	-1e-05	0	0	-2e-05	1e-05	-1e-05	-3e-05	0	0
501	-1e-05	0	0	-2e-05	1e-05	-1e-05	-3e-05	0	0
502	-1e-05	0	0	-2e-05	1e-05	-1e-05	-3e-05	0	0
503	-1e-05	0	0	-2e-05	1e-05	-1e-05	-3e-05	0	0
504	-1e-05	0	0	-2e-05	1e-05	-1e-05	-3e-05	0	0
505	-1e-05	0	0	-2e-05	1e-05	-1e-05	-3e-05	0	0
506	-1e-05	0	0	-2e-05	1e-05	-1e-05	-3e-05	0	0
507	-1e-05	0	0	-2e-05	1e-05	-1e-05	-3e-05	0	0
508	-1e-05	0	0	-2e-05	1e-05	-1e-05	-3e-05	0	0
509	0	0	-5e-05	-4e-05	-6e-05	-2e-05	-1e-05	0	0
510	0	1e-05	-1e-05	-7e-05	-6e-05	1e-05	0	0	0
511	0	1e-05	-1e-05	-7e-05	-6e-05	1e-05	0	0	0
512	0	1e-05	-1e-05	-7e-05	-6e-05	1e-05	0	0	0
513	0	1e-05	-1e-05	-7e-05	-6e-05	1e-05	0	0	0
514	0	1e-05	-1e-05	-7e-05	-6e-05	1e-05	0	0	0
515	0	1e-05	-1e-05	-7e-05	-6e-05	1e-05	0	0	0
516	0	1e-05	-1e-05	-7e-05	-6e-05	1e-05	0	0	0
517	0	1e-05	-1e-05	-7e-05	-6e-05	1e-05	0	0	0
518	0	1e-05	-1e-05	-7e-05	-6e-05	1e-05	0	0	0
519	0	1e-05	-1e-05	-7e-05	-6e-05	1e-05	0	0	0
520	0	1e-05	-1e-05	-7e-05	-6e-05	1e-05	0	0	0
521	0	1e-05	-1e-05	-7e-05	-6e-05	1e-05	0	0	0
522	-1e-05	-2e-05	-8e-05	2e-05	-7e-05	0	-2e-05	-3e-05	0
525	-1e-05	-2e-05	-8e-05	2e-05	-7e-05	0	-2e-05	-3e-05	0
526	-1e-05	-2e-05	-8e-05	2e-05	-7e-05	0	-2e-05	-3e-05	0
527	-1e-05	-2e-05	-8e-05	2e-05	-7e-05	0	-2e-05	-3e-05	0
528	-1e-05	-2e-05	-8e-05	2e-05	-7e-05	0	-2e-05	-3e-05	0
529	-2e-05	-2e-05	-2e-05	6e-05	-2e-05	0	-1e-05	-2e-05	0
530	-2e-05	-2e-05	-2e-05	6e-05	-2e-05	0	-1e-05	-2e-05	0
531	-2e-05	-2e-05	-2e-05	6e-05	-2e-05	0	-1e-05	-2e-05	0
532	-2e-05	-2e-05	-2e-05	6e-05	-2e-05	0	-1e-05	-2e-05	0
533	-2e-05	-2e-05	-2e-05	6e-05	-2e-05	0	-1e-05	-2e-05	0
534	-2e-05	-2e-05	-2e-05	6e-05	-2e-05	0	-1e-05	-2e-05	0
535	-2e-05	-2e-05	-2e-05	6e-05	-2e-05	0	-1e-05	-2e-05	0
536	-2e-05	-2e-05	-2e-05	6e-05	-2e-05	0	-1e-05	-2e-05	0
538	-2e-05	-2e-05	-2e-05	6e-05	-2e-05	0	-1e-05	-2e-05	0
539	-2e-05	-2e-05	-2e-05	6e-05	-2e-05	0	-1e-05	-2e-05	0
540	-2e-05	-2e-05	-2e-05	6e-05	-2e-05	0	-1e-05	-2e-05	0
541	-2e-05	-2e-05	-2e-05	6e-05	-2e-05	0	-1e-05	-2e-05	0
542	-2e-05	-2e-05	-2e-05	6e-05	-2e-05	0	-1e-05	-2e-05	0
543	-2e-05	-2e-05	-2e-05	6e-05	-2e-05	0	-1e-05	-2e-05	0
544	-2e-05	-2e-05	-2e-05	6e-05	-2e-05	0	-1e-05	-2e-05	0
545	-2e-05	-2e-05	-2e-05	6e-05	-2e-05	0	-1e-05	-2e-05	0
546	-2e-05	-4e-05	-6e-05	-3e-05	8e-05	0	-1e-05	-3e-05	0
547	0	0	4e-05	-6e-05	4e-05	-2e-05	0	1e-05	0
548	0	0	4e-05	-6e-05	4e-05	-2e-05	0	1e-05	0
549	0	0	4e-05	-6e-05	4e-05	-2e-05	0	1e-05	0
550	0	0	4e-05	-6e-05	4e-05	-2e-05	0	1e-05	0
551	0	0	4e-05	-6e-05	4e-05	-2e-05	0	1e-05	0
552	0	0	4e-05	-6e-05	4e-05	-2e-05	0	1e-05	0
553	0	0	4e-05	-6e-05	4e-05	-2e-05	0	1e-05	0
554	0	0	4e-05	-6e-05	4e-05	-2e-05	0	1e-05	0
555	0	0	4e-05	-6e-05	4e-05	-2e-05	0	1e-05	0
556	0	0	4e-05	-6e-05	4e-05	-2e-05	0	1e-05	0
557	0	0	4e-05	-6e-05	4e-05	-2e-05	0	1e-05	0
558	0	0	4e-05	-6e-05	4e-05	-2e-05	0	1e-05	0
559	0	0	4e-05	-6e-05	4e-05	-2e-05	0	1e-05	0
560	0	0	4e-05	-6e-05	4e-05	-2e-05	0	1e-05	0
561	0	0	4e-05	-6e-05	4e-05	-2e-05	0	1e-05	0
562	0	0	4e-05	-6e-05	4e-05	-2e-05	0	1e-05	0
563	0	0	4e-05	-6e-05	4e-05	-2e-05	0	1e-05	0
564	0	0	4e-05	-6e-05	4e-05	-2e-05	0	1e-05	0
565	0	0	4e-05	-6e-05	4e-05	-2e-05	0	1e-05	0
566	0	0	4e-05	-6e-05	4e-05	-2e-05	0	1e-05	0
567	0	0	4e-05	-6e-05	4e-05	-2e-05	0	1e-05	0
568	1e-05	2e-05	0.00011	4e-05	-4e-05	-2e-05	0	-1e-05	0
569	1e-05	2e-05	0.00011	4e-05	-4e-05	-2e-05	0	-1e-05	0
570	1e-05	3e-05	4e-05	1e-05	-0.00012	-1e-05	-1e-05	0	0
571	1e-05	3e-05	4e-05	1e-05	-0.00012	-1e-05	-1e-05	0	0
572	1e-05	3e-05	4e-05	1e-05	-0.00012	-1e-05	-1e-05	0	0
573	1e-05	3e-05	4e-05	1e-05	-0.00012	-1e-05	-1e-05	0	0
574	1e-05	3e-05	4e-05	1e-05	-0.00012	-1e-05	-1e-05	0	0
575	1e-05	3e-05	4e-05	1e-05	-0.00012	-1e-05	-1e-05	0	0
576	1e-05	3e-05	4e-05	1e-05	-0.00012	-1e-05	-1e-05	0	0
577	1e-05	3e-05	4e-05	1e-05	-0.00012	-1e-05	-1e-05	0	0
578	1e-05	3e-05	4e-05	1e-05	-0.00012	-1e-05	-1e-05	0	0
579	1e-05	3e-05	4e-05	1e-05	-0.00012	-1e-05	-1e-05	0	0
580	1e-05	3e-05	4e-05	1e-05	-0.00012	-1e-05	-1e-05	0	0
581	1e-05	3e-05	4e-05	1e-05	-0.00012	-1e-05	-1e-05	0	0
582	1e-05	3e-05	4e-05	1e-05	-0.00012	-1e-05	-1e-05	0	0
583	1e-05	3e-05	4e-05	1e-05	-0.00012	-1e-05	-1e-05	0	0
584	1e-05	3e-05	4e-05	1e-05	-0.00012	-1e-05	-1e-05	0	0
585	1e-05	3e-05	4e-05	1e-05	-0.00012	-1e-05	-1e-05	0	0
586	1e-05	3e-05	4e-05	1e-05	-0.00012	-1e-05	-1e-05	0	0
588	1e-05	3e-05	4e-05	1e-05	-0.00012	-1e-05	-1e-05	0	0
589	1e-05	3e-05	4e-05	1e-05	-0.00012	-1e-05	-1e-05	0	0
590	1e-05	3e-05	4e-05	1e-05	-0.00012	-1e-05	-1e-05	0	0
591	-1e-05	0	0	1e-05	-3e-05	-1e-05	1e-05	-2e-05	0
592	0	-3e-05	-7e-05	-9e-05	-4e-05	-1e-05	-1e-05	-2e-05	0
593	0	-3e-05	-7e-05	-9e-05	-4e-05	-1e-05	-1e-05	-2e-05	0
594	0	-3e-05	-7e-05	-9e-05	-4e-05	-1e-05	-1e-05	-2e-05	0
595	0	-3e-05	-7e-05	-9e-05	-4e-05	-1e-05	-1e-05	-2e-05	0
596	0	-3e-05	-7e-05	-9e-05	-4e-05	-1e-05	-1e-05	-2e-05	0
597	0	-3e-05	-7e-05	-9e-05	-4e-05	-1e-05	-1e-05	-2e-05	0
598	0	-3e-05	-7e-05	-9e-05	-4e-05	-1e-05	-1e-05	-2e-05	0
599	0	-3e-05	-7e-05	-9e-05	-4e-05	-1e-05	-1e-05	-2e-05	0
600	0	-3e-05	-7e-05	-9e-05	-4e-05	-1e-05	-1e-05	-2e-05	0
601	0	-3e-05	-7e-05	-9e-05	-4e-05	-1e-05	-1e-05	-2e-05	0
602	0	-3e-05	-7e-05	-9e-05	-4e-05	-1e-05	-1e-05	-2e-05	0
603	0	-3e-05	-7e-05	-9e-05	-4e-05	-1e-05	-1e-05	-2e-05	0
604	0	-3e-05	-7e-05	-9e-05	-4e-05	-1e-05	-1e-05	-2e-05	0
605	0	-3e-05	-7e-05	-9e-05	-4e-05	-1e-05	-1e-05	-2e-05	0
606	1e-05	1e-05	1e-05	-2e-05	-2e-05	-2e-05	-3e-05	-2e-05	0
607	1e-05	2e-05	2e-05	-2e-05	-1e-05	-3e-05	-1e-05	-1e-05	0
608	1e-05	2e-05	2e-05	-2e-05	-1e-05	-3e-05	-1e-05	-1e-05	0
609	1e-05	2e-05	2e-05	-2e-05	-1e-05	-3e-05	-1e-05	-1e-05	0
610	1e-05	2e-05	2e-05	-2e-05	-1e-05	-3e-05	-1e-05	-1e-05	0
611	1e-05	2e-05	2e-05	-2e-05	-1e-05	-3e-05	-1e-05	-1e-05	0
612	1e-05	2e-05	2e-05	-2e-05	-1e-05	-3e-05	-1e-05	-1e-05	0
613	1e-05	2e-05	2e-05	-2e-05	-1e-05	-3e-05	-1e-05	-1e-05	0
614	1e-05	2e-05	2e-05	-2e-05	-1e-05	-3e-05	-1e-05	-1e-05	0
615	1e-05	2e-05	2e-05	-2e-05	-1e-05	-3e-05	-1e-05	-1e-05	0
616	1e-05	2e-05	2e-05	-2e-05	-1e-05	-3e-05	-1e-05	-1e-05	0
617	1e-05	2e-05	2e-05	-2e-05	-1e-05	-3e-05	-1e-05	-1e-05	0
618	1e-05	2e-05	2e-05	-2e-05	-1e-05	-3e-05	-1e-05	-1e-05	0
619	1e-05	2e-05	2e-05	-2e-05	-1e-05	-3e-05	-1e-05	-1e-05	0
620	1e-05	2e-05	2e-05	-2e-05	-1e-05	-3e-05	-1e-05	-1e-05	0
621	1e-05	2e-05	2e-05	-2e-05	-1e-05	-3e-05	-1e-05	-1e-05	0
622	1e-05	2e-05	2e-05	-2e-05	-1e-05	-3e-05	-1e-05	-1e-05	0
623	1e-05	2e-05	2e-05	-2e-05	-1e-05	-3e-05	-1e-05	-1e-05	0
624	1e-05	2e-05	2e-05	-2e-05	-1e-05	-3e-05	-1e-05	-1e-05	0
625	1e-05	2e-05	2e-05	-2e-05	-1e-05	-3e-05	-1e-05	-1e-05	0
626	1e-05	2e-05	2e-05	-2e-05	-1e-05	-3e-05	-1e-05	-1e-05	0
627	1e-05	2e-05	2e-05	-2e-05	-1e-05	-3e-05	-1e-05	-1e-05	0
628	-1e-05	-3e-05	-5e-05	-4e-05	-4e-05	-2e-05	0	0	0
629	-1e-05	-3e-05	-5e-05	-4e-05	-4e-05	-2e-05	0	0	0
630	-1e-05	-3e-05	1e-05	1e-05	7e-05	0	0	-2e-05	0
631	-1e-05	-3e-05	1e-05	1e-05	7e-05	0	0	-2e-05	0
632	-1e-05	-3e-05	1e-05	1e-05	7e-05	0	0	-2e-05	0
633	-1e-05	-3e-05	1e-05	1e-05	7e-05	0	0	-2e-05	0
634	-1e-05	-3e-05	1e-05	1e-05	7e-05	0	0	-2e-05	0
635	-1e-05	-3e-05	1e-05	1e-05	7e-05	0	0	-2e-05	0
636	-1e-05	-3e-05	1e-05	1e-05	7e-05	0	0	-2e-05	0
638	-1e-05	-3e-05	1e-05	1e-05	7e-05	0	0	-2e-05	0
639	-1e-05	-3e-05	1e-05	1e-05	7e-05	0	0	-2e-05	0
640	-1e-05	-3e-05	1e-05	1e-05	7e-05	0	0	-2e-05	0
641	-1e-05	-3e-05	1e-05	1e-05	7e-05	0	0	-2e-05	0
642	-1e-05	-1e-05	2e-05	6e-05	0.00015	1e-05	-1e-05	0	0
643	-1e-05	-1e-05	2e-05	6e-05	0.00015	1e-05	-1e-05	0	0
644	-1e-05	-1e-05	2e-05	6e-05	0.00015	1e-05	-1e-05	0	0
645	-1e-05	-1e-05	2e-05	6e-05	0.00015	1e-05	-1e-05	0	0
646	-1e-05	-1e-05	2e-05	6e-05	0.00015	1e-05	-1e-05	0	0
647	-1e-05	-1e-05	2e-05	6e-05	0.00015	1e-05	-1e-05	0	0
648	-1e-05	-1e-05	2e-05	6e-05	0.00015	1e-05	-1e-05	0	0
649	-1e-05	-1e-05	2e-05	6e-05	0.00015	1e-05	-1e-05	0	0
650	-1e-05	-1e-05	2e-05	6e-05	0.00015	1e-05	-1e-05	0	0
651	0	-1e-05	-1e-05	9e-05	0.00011	0	-2e-05	-2e-05	0
652	0	-1e-05	-1e-05	9e-05	0.00011	0	-2e-05	-2e-05	0
653	0	-1e-05	-1e-05	9e-05	0.00011	0	-2e-05	-2e-05	0
654	0	-1e-05	-1e-05	9e-05	0.00011	0	-2e-05	-2e-05	0
655	0	-1e-05	-1e-05	9e-05	0.00011	0	-2e-05	-2e-05	0
656	0	-1e-05	-1e-05	9e-05	0.00011	0	-2e-05	-2e-05	0
657	0	-1e-05	-1e-05	9e-05	0.00011	0	-2e-05	-2e-05	0
658	0	-1e-05	-1e-05	9e-05	0.00011	0	-2e-05	-2e-05	0
659	0	-1e-05	-1e-05	9e-05	0.00011	0	-2e-05	-2e-05	0
660	0	-1e-05	-1e-05	9e-05	0.00011	0	-2e-05	-2e-05	0
661	0	-1e-05	-1e-05	9e-05	0.00011	0	-2e-05	-2e-05	0
662	0	-1e-05	-1e-05	9e-05	0.00011	0	-2e-05	-2e-05	0
663	0	-1e-05	-1e-05	9e-05	0.00011	0	-2e-05	-2e-05	0
664	0	-1e-05	-1e-05	9e-05	0.00011	0	-2e-05	-2e-05	0
665	0	-1e-05	-1e-05	9e-05	0.00011	0	-2e-05	-2e-05	0
666	-1e-05	-1e-05	-2e-05	-0.00014	-0.00015	-2e-05	-1e-05	1e-05	0
667	0	-5e-05	-0.00013	4e-05	3e-05	-3e-05	-1e-05	-1e-05	0
668	0	-5e-05	-0.00013	4e-05	3e-05	-3e-05	-1e-05	-1e-05	0
669	0	-5e-05	-0.00013	4e-05	3e-05	-3e-05	-1e-05	-1e-05	0
670	0	-5e-05	-0.00013	4e-05	3e-05	-3e-05	-1e-05	-1e-05	0
671	0	-5e-05	-0.00013	4e-05	3e-05	-3e-05	-1e-05	-1e-05	0
672	0	-5e-05	-0.00013	4e-05	3e-05	-3e-05	-1e-05	-1e-05	0
673	0	-5e-05	-0.00013	4e-05	3e-05	-3e-05	-1e-05	-1e-05	0
674	0	-5e-05	-0.00013	4e-05	3e-05	-3e-05	-1e-05	-1e-05	0
675	0	-5e-05	-0.00013	4e-05	3e-05	-3e-05	-1e-05	-1e-05	0
676	0	-5e-05	-0.00013	4e-05	3e-05	-3e-05	-1e-05	-1e-05	0
677	0	-5e-05	-0.00013	4e-05	3e-05	-3e-05	-1e-05	-1e-05	0
678	0	-5e-05	-0.00013	4e-05	3e-05	-3e-05	-1e-05	-1e-05	0
679	0	-5e-05	-0.00013	4e-05	3e-05	-3e-05	-1e-05	-1e-05	0
680	0	-5e-05	-0.00013	4e-05	3e-05	-3e-05	-1e-05	-1e-05	0
681	0	-5e-05	-0.00013	4e-05	3e-05	-3e-05	-1e-05	-1e-05	0
682	0	-5e-05	-0.00013	4e-05	3e-05	-3e-05	-1e-05	-1e-05	0
683	0	-5e-05	-0.00013	4e-05	3e-05	-3e-05	-1e-05	-1e-05	0
684	0	-5e-05	-0.00013	4e-05	3e-05	-3e-05	-1e-05	-1e-05	0
685	0	-5e-05	-0.00013	4e-05	3e-05	-3e-05	-1e-05	-1e-05	0
686	0	-5e-05	-0.00013	4e-05	3e-05	-3e-05	-1e-05	-1e-05	0
689	2e-05	6e-05	5e-05	3e-05	0	-2e-05	-1e-05	-1e-05	0
690	-3e-05	-8e-05	-9e-05	-7e-05	-1e-05	0	-1e-05	-2e-05	0
691	-3e-05	-8e-05	-9e-05	-7e-05	-1e-05	0	-1e-05	-2e-05	0
692	-3e-05	-8e-05	-9e-05	-7e-05	-1e-05	0	-1e-05	-2e-05	0
693	-3e-05	-8e-05	-9e-05	-7e-05	-1e-05	0	-1e-05	-2e-05	0
694	-3e-05	-8e-05	-9e-05	-7e-05	-1e-05	0	-1e-05	-2e-05	0
695	-3e-05	-8e-05	-9e-05	-7e-05	-1e-05	0	-1e-05	-2e-05	0
696	-3e-05	-8e-05	-9e-05	-7e-05	-1e-05	0	-1e-05	-2e-05	0
697	-3e-05	-8e-05	-9e-05	-7e-05	-1e-05	0	-1e-05	-2e-05	0
698	-3e-05	-8e-05	-9e-05	-7e-05	-1e-05	0	-1e-05	-2e-05	0
699	-3e-05	-8e-05	-9e-05	-7e-05	-1e-05	0	-1e-05	-2e-05	0
700	-3e-05	-8e-05	-9e-05	-7e-05	-1e-05	0	-1e-05	-2e-05	0
701	-3e-05	-8e-05	-9e-05	-7e-05	-1e-05	0	-1e-05	-2e-05	0
702	0	-3e-05	3e-05	5e-05	-0.00025	0	0	0	0
703	0	-3e-05	3e-05	5e-05	-0.00025	0	0	0	0
704	0	-3e-05	3e-05	5e-05	-0.00025	0	0	0	0
705	0	-3e-05	3e-05	5e-05	-0.00025	0	0	0	0
706	0	-3e-05	3e-05	5e-05	-0.00025	0	0	0	0
707	0	-3e-05	3e-05	5e-05	-0.00025	0	0	0	0
708	0	-3e-05	3e-05	5e-05	-0.00025	0	0	0	0
709	0	-3e-05	3e-05	5e-05	-0.00025	0	0	0	0
710	0	-3e-05	3e-05	5e-05	-0.00025	0	0	0	0
711	-1e-05	1e-05	8e-05	-3e-05	-0.0001	-2e-05	0	1e-05	0
712	-1e-05	1e-05	8e-05	-3e-05	-0.0001	-2e-05	0	1e-05	0
713	-1e-05	1e-05	8e-05	-3e-05	-0.0001	-2e-05	0	1e-05	0
714	-1e-05	1e-05	8e-05	-3e-05	-0.0001	-2e-05	0	1e-05	0
715	-1e-05	1e-05	8e-05	-3e-05	-0.0001	-2e-05	0	1e-05	0
716	-1e-05	1e-05	8e-05	-3e-05	-0.0001	-2e-05	0	1e-05	0
717	-1e-05	1e-05	8e-05	-3e-05	-0.0001	-2e-05	0	1e-05	0
718	-1e-05	1e-05	8e-05	-3e-05	-0.0001	-2e-05	0	1e-05	0
719	-1e-05	1e-05	8e-05	-3e-05	-0.0001	-2e-05	0	1e-05	0
720	-1e-05	1e-05	8e-05	-3e-05	-0.0001	-2e-05	0	1e-05	0
721	-1e-05	1e-05	8e-05	-3e-05	-0.0001	-2e-05	0	1e-05	0
722	-1e-05	1e-05	8e-05	-3e-05	-0.0001	-2e-05	0	1e-05	0
723	-1e-05	1e-05	8e-05	-3e-05	-0.0001	-2e-05	0	1e-05	0
724	-1e-05	1e-05	8e-05	-3e-05	-0.0001	-2e-05	0	1e-05	0
725	-1e-05	1e-05	8e-05	-3e-05	-0.0001	-2e-05	0	1e-05	0
726	2e-05	1e-05	-2e-05	-1e-05	-8e-05	2e-05	-1e-05	-2e-05	0
727	-3e-05	-2e-05	-6e-05	6e-05	8e-05	1e-05	0	0	0
729	-3e-05	-2e-05	-6e-05	6e-05	8e-05	1e-05	0	0	0
730	-3e-05	-2e-05	-6e-05	6e-05	8e-05	1e-05	0	0	0
731	-3e-05	-2e-05	-6e-05	6e-05	8e-05	1e-05	0	0	0
732	-3e-05	-2e-05	-6e-05	6e-05	8e-05	1e-05	0	0	0
733	-3e-05	-2e-05	-6e-05	6e-05	8e-05	1e-05	0	0	0
734	-3e-05	-2e-05	-6e-05	6e-05	8e-05	1e-05	0	0	0
735	-3e-05	-2e-05	-6e-05	6e-05	8e-05	1e-05	0	0	0
736	-3e-05	-2e-05	-6e-05	6e-05	8e-05	1e-05	0	0	0
738	-3e-05	-2e-05	-6e-05	6e-05	8e-05	1e-05	0	0	0
740	-3e-05	-2e-05	-6e-05	6e-05	8e-05	1e-05	0	0	0
741	-3e-05	-2e-05	-6e-05	6e-05	8e-05	1e-05	0	0	0
742	-3e-05	-2e-05	-6e-05	6e-05	8e-05	1e-05	0	0	0
743	-3e-05	-2e-05	-6e-05	6e-05	8e-05	1e-05	0	0	0
744	-3e-05	-2e-05	-6e-05	6e-05	8e-05	1e-05	0	0	0
745	-3e-05	-2e-05	-6e-05	6e-05	8e-05	1e-05	0	0	0
746	-3e-05	-2e-05	-6e-05	6e-05	8e-05	1e-05	0	0	0
747	-3e-05	-2e-05	-6e-05	6e-05	8e-05	1e-05	0	0	0
748	-2e-05	0	4e-05	5e-05	7e-05	1e-05	-1e-05	0	0
749	-2e-05	0	4e-05	5e-05	7e-05	1e-05	-1e-05	0	0
750	0	1e-05	-3e-05	-8e-05	3e-05	0	1e-05	-3e-05	0
751	0	1e-05	-3e-05	-8e-05	3e-05	0	1e-05	-3e-05	0
752	0	1e-05	-3e-05	-8e-05	3e-05	0	1e-05	-3e-05	0
753	0	1e-05	-3e-05	-8e-05	3e-05	0	1e-05	-3e-05	0
754	0	1e-05	-3e-05	-8e-05	3e-05	0	1e-05	-3e-05	0
755	0	1e-05	-3e-05	-8e-05	3e-05	0	1e-05	-3e-05	0
756	0	1e-05	-3e-05	-8e-05	3e-05	0	1e-05	-3e-05	0
757	0	1e-05	-3e-05	-8e-05	3e-05	0	1e-05	-3e-05	0
758	0	1e-05	-3e-05	-8e-05	3e-05	0	1e-05	-3e-05	0
759	0	1e-05	-3e-05	-8e-05	3e-05	0	1e-05	-3e-05	0
760	0	1e-05	-3e-05	-8e-05	3e-05	0	1e-05	-3e-05	0
761	0	1e-05	-3e-05	-8e-05	3e-05	0	1e-05	-3e-05	0
762	0	1e-05	5e-05	-3e-05	-1e-05	-2e-05	-3e-05	-2e-05	0
763	-3e-05	-7e-05	-7e-05	7e-05	-0.00012	-3e-05	-3e-05	-2e-05	0
764	-3e-05	-7e-05	-7e-05	7e-05	-0.00012	-3e-05	-3e-05	-2e-05	0
765	-3e-05	-7e-05	-7e-05	7e-05	-0.00012	-3e-05	-3e-05	-2e-05	0
766	-3e-05	-7e-05	-7e-05	7e-05	-0.00012	-3e-05	-3e-05	-2e-05	0
767	-3e-05	-7e-05	-7e-05	7e-05	-0.00012	-3e-05	-3e-05	-2e-05	0
768	-3e-05	-7e-05	-7e-05	7e-05	-0.00012	-3e-05	-3e-05	-2e-05	0
769	-3e-05	-7e-05	-7e-05	7e-05	-0.00012	-3e-05	-3e-05	-2e-05	0
770	-3e-05	-4e-05	-5e-05	-2e-05	0	-2e-05	-1e-05	-1e-05	0
771	-1e-05	2e-05	3e-05	1e-05	-4e-05	0	-1e-05	-1e-05	0
772	-1e-05	2e-05	3e-05	1e-05	-4e-05	0	-1e-05	-1e-05	0
773	-1e-05	2e-05	3e-05	1e-05	-4e-05	0	-1e-05	-1e-05	0
774	-1e-05	2e-05	3e-05	1e-05	-4e-05	0	-1e-05	-1e-05	0
775	-1e-05	2e-05	3e-05	1e-05	-4e-05	0	-1e-05	-1e-05	0
776	-1e-05	2e-05	3e-05	1e-05	-4e-05	0	-1e-05	-1e-05	0
777	-1e-05	2e-05	3e-05	1e-05	-4e-05	0	-1e-05	-1e-05	0
778	-1e-05	2e-05	3e-05	1e-05	-4e-05	0	-1e-05	-1e-05	0
779	-1e-05	2e-05	3e-05	1e-05	-4e-05	0	-1e-05	-1e-05	0
780	-1e-05	2e-05	3e-05	1e-05	-4e-05	0	-1e-05	-1e-05	0
781	-1e-05	2e-05	3e-05	1e-05	-4e-05	0	-1e-05	-1e-05	0
782	-1e-05	2e-05	3e-05	1e-05	-4e-05	0	-1e-05	-1e-05	0
783	-1e-05	2e-05	3e-05	1e-05	-4e-05	0	-1e-05	-1e-05	0
784	-1e-05	2e-05	3e-05	1e-05	-4e-05	0	-1e-05	-1e-05	0
785	-1e-05	2e-05	3e-05	1e-05	-4e-05	0	-1e-05	-1e-05	0
787	0	-1e-05	0	-7e-05	-0.00011	-5e-05	-1e-05	-1e-05	0
789	0	-1e-05	0	-7e-05	-0.00011	-5e-05	-1e-05	-1e-05	0
790	0	-1e-05	0	-7e-05	-0.00011	-5e-05	-1e-05	-1e-05	0
791	0	-1e-05	0	-7e-05	-0.00011	-5e-05	-1e-05	-1e-05	0
792	0	-1e-05	0	-7e-05	-0.00011	-5e-05	-1e-05	-1e-05	0
793	0	-1e-05	0	-7e-05	-0.00011	-5e-05	-1e-05	-1e-05	0
794	0	-1e-05	0	-7e-05	-0.00011	-5e-05	-1e-05	-1e-05	0
795	0	-1e-05	0	-7e-05	-0.00011	-5e-05	-1e-05	-1e-05	0
796	0	-1e-05	0	-7e-05	-0.00011	-5e-05	-1e-05	-1e-05	0
797	0	-1e-05	0	-7e-05	-0.00011	-5e-05	-1e-05	-1e-05	0
798	0	-1e-05	0	-7e-05	-0.00011	-5e-05	-1e-05	-1e-05	0
799	0	-1e-05	0	-7e-05	-0.00011	-5e-05	-1e-05	-1e-05	0
800	0	-1e-05	0	-7e-05	-0.00011	-5e-05	-1e-05	-1e-05	0
801	0	-1e-05	0	-7e-05	-0.00011	-5e-05	-1e-05	-1e-05	0
802	0	-1e-05	0	-7e-05	-0.00011	-5e-05	-1e-05	-1e-05	0
803	0	-1e-05	0	-7e-05	-0.00011	-5e-05	-1e-05	-1e-05	0
804	0	-1e-05	0	-7e-05	-0.00011	-5e-05	-1e-05	-1e-05	0
805	0	-1e-05	0	-7e-05	-0.00011	-5e-05	-1e-05	-1e-05	0
806	0	-1e-05	0	-7e-05	-0.00011	-5e-05	-1e-05	-1e-05	0
807	0	-1e-05	0	-7e-05	-0.00011	-5e-05	-1e-05	-1e-05	0
808	-1e-05	1e-05	0	4e-05	5e-05	-1e-05	0	-2e-05	0
809	-1e-05	1e-05	0	4e-05	5e-05	-1e-05	0	-2e-05	0
810	0	0	2e-05	0	4e-05	0	0	0	0
811	0	0	2e-05	0	4e-05	0	0	0	0
812	0	0	2e-05	0	4e-05	0	0	0	0
813	0	0	2e-05	0	4e-05	0	0	0	0
814	0	0	2e-05	0	4e-05	0	0	0	0
815	0	0	2e-05	0	4e-05	0	0	0	0
816	0	0	2e-05	0	4e-05	0	0	0	0
817	0	0	2e-05	0	4e-05	0	0	0	0
818	0	0	2e-05	0	4e-05	0	0	0	0
819	0	0	2e-05	0	4e-05	0	0	0	0
820	0	0	2e-05	0	4e-05	0	0	0	0
821	0	0	2e-05	0	4e-05	0	0	0	0
822	0	-1e-05	-2e-05	-0.0001	1e-05	2e-05	1e-05	1e-05	0
823	0	-1e-05	-2e-05	-0.0001	1e-05	2e-05	1e-05	1e-05	0
824	0	-1e-05	-2e-05	-0.0001	1e-05	2e-05	1e-05	1e-05	0
825	0	-1e-05	-2e-05	-0.0001	1e-05	2e-05	1e-05	1e-05	0
826	0	-1e-05	-2e-05	-0.0001	1e-05	2e-05	1e-05	1e-05	0
827	0	-1e-05	-2e-05	-0.0001	1e-05	2e-05	1e-05	1e-05	0
828	0	-1e-05	-2e-05	-0.0001	1e-05	2e-05	1e-05	1e-05	0
829	0	-1e-05	-2e-05	-0.0001	1e-05	2e-05	1e-05	1e-05	0
830	0	-1e-05	-2e-05	-0.0001	1e-05	2e-05	1e-05	1e-05	0
831	0	-1e-05	-2e-05	-0.0001	1e-05	2e-05	1e-05	1e-05	0
832	0	-1e-05	-2e-05	-0.0001	1e-05	2e-05	1e-05	1e-05	0
833	0	-1e-05	-2e-05	-0.0001	1e-05	2e-05	1e-05	1e-05	0
834	0	-1e-05	-2e-05	-0.0001	1e-05	2e-05	1e-05	1e-05	0
835	0	-1e-05	-2e-05	-0.0001	1e-05	2e-05	1e-05	1e-05	0
836	0	-1e-05	-2e-05	-0.0001	1e-05	2e-05	1e-05	1e-05	0
839	0	0	1e-05	0	2e-05	0	0	1e-05	0
840	0	0	1e-05	0	2e-05	0	0	1e-05	0
841	0	0	1e-05	0	2e-05	0	0	1e-05	0
842	0	0	1e-05	0	2e-05	0	0	1e-05	0
843	0	0	1e-05	0	2e-05	0	0	1e-05	0
844	0	0	1e-05	0	2e-05	0	0	1e-05	0
845	0	0	1e-05	0	2e-05	0	0	1e-05	0
846	-2e-05	-2e-05	-2e-05	-8e-05	4e-05	-4e-05	-2e-05	-3e-05	0
847	1e-05	1e-05	-1e-05	-3e-05	-4e-05	-2e-05	-2e-05	0	0
848	1e-05	1e-05	-1e-05	-3e-05	-4e-05	-2e-05	-2e-05	0	0
849	1e-05	1e-05	-1e-05	-3e-05	-4e-05	-2e-05	-2e-05	0	0
850	1e-05	1e-05	-1e-05	-3e-05	-4e-05	-2e-05	-2e-05	0	0
851	1e-05	1e-05	-1e-05	-3e-05	-4e-05	-2e-05	-2e-05	0	0
852	1e-05	1e-05	-1e-05	-3e-05	-4e-05	-2e-05	-2e-05	0	0
853	1e-05	1e-05	-1e-05	-3e-05	-4e-05	-2e-05	-2e-05	0	0
854	1e-05	1e-05	-1e-05	-3e-05	-4e-05	-2e-05	-2e-05	0	0
855	1e-05	1e-05	-1e-05	-3e-05	-4e-05	-2e-05	-2e-05	0	0
856	1e-05	1e-05	-1e-05	-3e-05	-4e-05	-2e-05	-2e-05	0	0
857	1e-05	1e-05	-1e-05	-3e-05	-4e-05	-2e-05	-2e-05	0	0
858	1e-05	1e-05	-1e-05	-3e-05	-4e-05	-2e-05	-2e-05	0	0
859	1e-05	1e-05	-1e-05	-3e-05	-4e-05	-2e-05	-2e-05	0	0
860	1e-05	1e-05	-1e-05	-3e-05	-4e-05	-2e-05	-2e-05	0	0
861	1e-05	1e-05	-1e-05	-3e-05	-4e-05	-2e-05	-2e-05	0	0
862	1e-05	1e-05	-1e-05	-3e-05	-4e-05	-2e-05	-2e-05	0	0
863	1e-05	1e-05	-1e-05	-3e-05	-4e-05	-2e-05	-2e-05	0	0
864	1e-05	1e-05	-1e-05	-3e-05	-4e-05	-2e-05	-2e-05	0	0
865	1e-05	1e-05	-1e-05	-3e-05	-4e-05	-2e-05	-2e-05	0	0
866	1e-05	1e-05	-1e-05	-3e-05	-4e-05	-2e-05	-2e-05	0	0
867	1e-05	1e-05	-1e-05	-3e-05	-4e-05	-2e-05	-2e-05	0	0
868	1e-05	1e-05	-1e-05	-3e-05	-4e-05	-2e-05	-2e-05	0	0
869	-2e-05	0	-2e-05	-7e-05	-0.00011	-2e-05	0	0	0
870	1e-05	-1e-05	1e-05	9e-05	9e-05	1e-05	0	-2e-05	0
872	1e-05	-1e-05	1e-05	9e-05	9e-05	1e-05	0	-2e-05	0
873	1e-05	-1e-05	1e-05	9e-05	9e-05	1e-05	0	-2e-05	0
874	1e-05	-1e-05	1e-05	9e-05	9e-05	1e-05	0	-2e-05	0
875	1e-05	-1e-05	1e-05	9e-05	9e-05	1e-05	0	-2e-05	0
876	1e-05	-1e-05	1e-05	9e-05	9e-05	1e-05	0	-2e-05	0
877	1e-05	-1e-05	1e-05	9e-05	9e-05	1e-05	0	-2e-05	0
878	1e-05	-1e-05	1e-05	9e-05	9e-05	1e-05	0	-2e-05	0
879	1e-05	-1e-05	1e-05	9e-05	9e-05	1e-05	0	-2e-05	0
880	1e-05	-1e-05	1e-05	9e-05	9e-05	1e-05	0	-2e-05	0
881	1e-05	-1e-05	1e-05	9e-05	9e-05	1e-05	0	-2e-05	0
882	1e-05	2e-05	8e-05	0.00017	8e-05	-1e-05	-3e-05	-1e-05	0
883	1e-05	2e-05	8e-05	0.00017	8e-05	-1e-05	-3e-05	-1e-05	0
884	1e-05	2e-05	8e-05	0.00017	8e-05	-1e-05	-3e-05	-1e-05	0
885	1e-05	2e-05	8e-05	0.00017	8e-05	-1e-05	-3e-05	-1e-05	0
886	1e-05	2e-05	8e-05	0.00017	8e-05	-1e-05	-3e-05	-1e-05	0
889	1e-05	2e-05	8e-05	0.00017	8e-05	-1e-05	-3e-05	-1e-05	0
890	1e-05	2e-05	8e-05	0.00017	8e-05	-1e-05	-3e-05	-1e-05	0
891	1e-05	2e-05	8e-05	0.00017	8e-05	-1e-05	-3e-05	-1e-05	0
892	1e-05	2e-05	8e-05	0.00017	8e-05	-1e-05	-3e-05	-1e-05	0
893	1e-05	2e-05	8e-05	0.00017	8e-05	-1e-05	-3e-05	-1e-05	0
894	1e-05	2e-05	8e-05	0.00017	8e-05	-1e-05	-3e-05	-1e-05	0
895	1e-05	2e-05	8e-05	0.00017	8e-05	-1e-05	-3e-05	-1e-05	0
896	1e-05	2e-05	8e-05	0.00017	8e-05	-1e-05	-3e-05	-1e-05	0
897	1e-05	2e-05	8e-05	0.00017	8e-05	-1e-05	-3e-05	-1e-05	0
898	0	2e-05	5e-05	-0.00012	-0.0002	-1e-05	0	1e-05	0
899	0	2e-05	5e-05	-0.00012	-0.0002	-1e-05	0	1e-05	0
900	0	2e-05	5e-05	-0.00012	-0.0002	-1e-05	0	1e-05	0
901	0	2e-05	5e-05	-0.00012	-0.0002	-1e-05	0	1e-05	0
902	0	2e-05	5e-05	-0.00012	-0.0002	-1e-05	0	1e-05	0
903	0	2e-05	5e-05	-0.00012	-0.0002	-1e-05	0	1e-05	0
904	0	2e-05	5e-05	-0.00012	-0.0002	-1e-05	0	1e-05	0
905	0	2e-05	5e-05	-0.00012	-0.0002	-1e-05	0	1e-05	0
906	0	-4e-05	-6e-05	-3e-05	-7e-05	-1e-05	-2e-05	0	0
907	-2e-05	-3e-05	-5e-05	4e-05	1e-05	-2e-05	0	-4e-05	0
908	-2e-05	-3e-05	-5e-05	4e-05	1e-05	-2e-05	0	-4e-05	0
909	-2e-05	-3e-05	-5e-05	4e-05	1e-05	-2e-05	0	-4e-05	0
910	-2e-05	-3e-05	-5e-05	4e-05	1e-05	-2e-05	0	-4e-05	0
911	-2e-05	-3e-05	-5e-05	4e-05	1e-05	-2e-05	0	-4e-05	0
912	-2e-05	-3e-05	-5e-05	4e-05	1e-05	-2e-05	0	-4e-05	0
913	-2e-05	-3e-05	-5e-05	4e-05	1e-05	-2e-05	0	-4e-05	0
914	-2e-05	-3e-05	-5e-05	4e-05	1e-05	-2e-05	0	-4e-05	0
915	-2e-05	-3e-05	-5e-05	4e-05	1e-05	-2e-05	0	-4e-05	0
916	-2e-05	-3e-05	-5e-05	4e-05	1e-05	-2e-05	0	-4e-05	0
917	-2e-05	-3e-05	-5e-05	4e-05	1e-05	-2e-05	0	-4e-05	0
918	-2e-05	-3e-05	-5e-05	4e-05	1e-05	-2e-05	0	-4e-05	0
919	-2e-05	-3e-05	-5e-05	4e-05	1e-05	-2e-05	0	-4e-05	0
920	-2e-05	-3e-05	-5e-05	4e-05	1e-05	-2e-05	0	-4e-05	0
921	-2e-05	-3e-05	-5e-05	4e-05	1e-05	-2e-05	0	-4e-05	0
922	-2e-05	-3e-05	-5e-05	4e-05	1e-05	-2e-05	0	-4e-05	0
923	-2e-05	-3e-05	-5e-05	4e-05	1e-05	-2e-05	0	-4e-05	0
924	-2e-05	-3e-05	-5e-05	4e-05	1e-05	-2e-05	0	-4e-05	0
925	-2e-05	-3e-05	-5e-05	4e-05	1e-05	-2e-05	0	-4e-05	0
926	-2e-05	-3e-05	-5e-05	4e-05	1e-05	-2e-05	0	-4e-05	0
927	-2e-05	-3e-05	-5e-05	4e-05	1e-05	-2e-05	0	-4e-05	0
928	-2e-05	-3e-05	-5e-05	4e-05	1e-05	-2e-05	0	-4e-05	0
929	-2e-05	0	2e-05	2e-05	7e-05	0	-2e-05	-2e-05	0
930	-4e-05	-1e-05	-2e-05	-2e-05	-0.00014	-1e-05	-1e-05	-1e-05	0
931	-4e-05	-1e-05	-2e-05	-2e-05	-0.00014	-1e-05	-1e-05	-1e-05	0
932	-4e-05	-1e-05	-2e-05	-2e-05	-0.00014	-1e-05	-1e-05	-1e-05	0
933	-4e-05	-1e-05	-2e-05	-2e-05	-0.00014	-1e-05	-1e-05	-1e-05	0
934	-4e-05	-1e-05	-2e-05	-2e-05	-0.00014	-1e-05	-1e-05	-1e-05	0
935	-4e-05	-1e-05	-2e-05	-2e-05	-0.00014	-1e-05	-1e-05	-1e-05	0
936	-4e-05	-1e-05	-2e-05	-2e-05	-0.00014	-1e-05	-1e-05	-1e-05	0
938	-4e-05	-1e-05	-2e-05	-2e-05	-0.00014	-1e-05	-1e-05	-1e-05	0
939	-4e-05	-1e-05	-2e-05	-2e-05	-0.00014	-1e-05	-1e-05	-1e-05	0
940	-4e-05	-1e-05	-2e-05	-2e-05	-0.00014	-1e-05	-1e-05	-1e-05	0
941	-4e-05	-1e-05	-2e-05	-2e-05	-0.00014	-1e-05	-1e-05	-1e-05	0
942	1e-05	0	0	-2e-05	-2e-05	-1e-05	0	-1e-05	0
943	1e-05	0	0	-2e-05	-2e-05	-1e-05	0	-1e-05	0
944	1e-05	0	0	-2e-05	-2e-05	-1e-05	0	-1e-05	0
945	1e-05	0	0	-2e-05	-2e-05	-1e-05	0	-1e-05	0
946	1e-05	0	0	-2e-05	-2e-05	-1e-05	0	-1e-05	0
947	1e-05	0	0	-2e-05	-2e-05	-1e-05	0	-1e-05	0
948	1e-05	0	0	-2e-05	-2e-05	-1e-05	0	-1e-05	0
949	1e-05	0	0	-2e-05	-2e-05	-1e-05	0	-1e-05	0
950	0	-2e-05	1e-05	2e-05	-6e-05	-2e-05	0	-1e-05	0
951	0	-4e-05	-8e-05	-3e-05	7e-05	-1e-05	-2e-05	-1e-05	0
952	0	-4e-05	-8e-05	-3e-05	7e-05	-1e-05	-2e-05	-1e-05	0
953	0	-4e-05	-8e-05	-3e-05	7e-05	-1e-05	-2e-05	-1e-05	0
954	0	-4e-05	-8e-05	-3e-05	7e-05	-1e-05	-2e-05	-1e-05	0
955	0	-4e-05	-8e-05	-3e-05	7e-05	-1e-05	-2e-05	-1e-05	0
956	0	-4e-05	-8e-05	-3e-05	7e-05	-1e-05	-2e-05	-1e-05	0
957	0	-4e-05	-8e-05	-3e-05	7e-05	-1e-05	-2e-05	-1e-05	0
958	0	-4e-05	-8e-05	-3e-05	7e-05	-1e-05	-2e-05	-1e-05	0
959	0	-4e-05	-8e-05	-3e-05	7e-05	-1e-05	-2e-05	-1e-05	0
960	0	-4e-05	-8e-05	-3e-05	7e-05	-1e-05	-2e-05	-1e-05	0
961	0	-4e-05	-8e-05	-3e-05	7e-05	-1e-05	-2e-05	-1e-05	0
962	0	-4e-05	-8e-05	-3e-05	7e-05	-1e-05	-2e-05	-1e-05	0
963	0	-4e-05	-8e-05	-3e-05	7e-05	-1e-05	-2e-05	-1e-05	0
964	0	-4e-05	-8e-05	-3e-05	7e-05	-1e-05	-2e-05	-1e-05	0
965	0	-4e-05	-8e-05	-3e-05	7e-05	-1e-05	-2e-05	-1e-05	0
966	-2e-05	0	-1e-05	-2e-05	-9e-05	-4e-05	-1e-05	1e-05	0
967	-2e-05	-3e-05	1e-05	7e-05	3e-05	-2e-05	-1e-05	-2e-05	0
968	-2e-05	-3e-05	1e-05	7e-05	3e-05	-2e-05	-1e-05	-2e-05	0
969	-2e-05	-3e-05	1e-05	7e-05	3e-05	-2e-05	-1e-05	-2e-05	0
970	-2e-05	-3e-05	1e-05	7e-05	3e-05	-2e-05	-1e-05	-2e-05	0
971	-2e-05	-3e-05	1e-05	7e-05	3e-05	-2e-05	-1e-05	-2e-05	0
972	-2e-05	-3e-05	1e-05	7e-05	3e-05	-2e-05	-1e-05	-2e-05	0
973	-2e-05	-3e-05	1e-05	7e-05	3e-05	-2e-05	-1e-05	-2e-05	0
974	-2e-05	-3e-05	1e-05	7e-05	3e-05	-2e-05	-1e-05	-2e-05	0
975	-2e-05	-3e-05	1e-05	7e-05	3e-05	-2e-05	-1e-05	-2e-05	0
976	-2e-05	-3e-05	1e-05	7e-05	3e-05	-2e-05	-1e-05	-2e-05	0
977	-2e-05	-3e-05	1e-05	7e-05	3e-05	-2e-05	-1e-05	-2e-05	0
978	-2e-05	-3e-05	1e-05	7e-05	3e-05	-2e-05	-1e-05	-2e-05	0
979	-2e-05	-3e-05	1e-05	7e-05	3e-05	-2e-05	-1e-05	-2e-05	0
980	-2e-05	-3e-05	1e-05	7e-05	3e-05	-2e-05	-1e-05	-2e-05	0
981	-2e-05	-3e-05	1e-05	7e-05	3e-05	-2e-05	-1e-05	-2e-05	0
982	-2e-05	-3e-05	1e-05	7e-05	3e-05	-2e-05	-1e-05	-2e-05	0
983	-2e-05	-3e-05	1e-05	7e-05	3e-05	-2e-05	-1e-05	-2e-05	0
984	-2e-05	-3e-05	1e-05	7e-05	3e-05	-2e-05	-1e-05	-2e-05	0
985	-2e-05	-3e-05	1e-05	7e-05	3e-05	-2e-05	-1e-05	-2e-05	0
986	-2e-05	-3e-05	1e-05	7e-05	3e-05	-2e-05	-1e-05	-2e-05	0
989	0	1e-05	8e-05	-3e-05	3e-05	1e-05	0	-2e-05	0
990	0	-2e-05	0	0.0001	-2e-05	2e-05	-1e-05	-2e-05	0
991	0	-2e-05	0	0.0001	-2e-05	2e-05	-1e-05	-2e-05	0
992	0	-2e-05	0	0.0001	-2e-05	2e-05	-1e-05	-2e-05	0
993	0	-2e-05	0	0.0001	-2e-05	2e-05	-1e-05	-2e-05	0
994	0	-2e-05	0	0.0001	-2e-05	2e-05	-1e-05	-2e-05	0
995	0	-2e-05	0	0.0001	-2e-05	2e-05	-1e-05	-2e-05	0
996	0	-2e-05	0	0.0001	-2e-05	2e-05	-1e-05	-2e-05	0
997	0	-2e-05	0	0.0001	-2e-05	2e-05	-1e-05	-2e-05	0
998	0	-2e-05	0	0.0001	-2e-05	2e-05	-1e-05	-2e-05	0
999	0	-2e-05	0	0.0001	-2e-05	2e-05	-1e-05	-2e-05	0
1000	0	-2e-05	0	0.0001	-2e-05	2e-05	-1e-05	-2e-05	0
1001	-1e-05	1e-05	4e-05	-7e-05	-9e-05	-4e-05	0	-1e-05	0
1002	-1e-05	1e-05	4e-05	-7e-05	-9e-05	-4e-05	0	-1e-05	0
1003	-1e-05	1e-05	4e-05	-7e-05	-9e-05	-4e-05	0	-1e-05	0
1004	-1e-05	1e-05	4e-05	-7e-05	-9e-05	-4e-05	0	-1e-05	0
1005	-1e-05	1e-05	4e-05	-7e-05	-9e-05	-4e-05	0	-1e-05	0
1006	-1e-05	1e-05	4e-05	-7e-05	-9e-05	-4e-05	0	-1e-05	0
1007	-1e-05	1e-05	4e-05	-7e-05	-9e-05	-4e-05	0	-1e-05	0
1016	-1e-05	1e-05	4e-05	-7e-05	-9e-05	-4e-05	0	-1e-05	0
1020	-1e-05	1e-05	4e-05	-7e-05	-9e-05	-4e-05	0	-1e-05	0
1025	-1e-05	1e-05	4e-05	-7e-05	-9e-05	-4e-05	0	-1e-05	0
1026	-1e-05	-1e-05	2e-05	-3e-05	8e-05	-3e-05	-3e-05	0	0
1027	1e-05	-3e-05	-6e-05	-3e-05	-0.00012	0	-1e-05	-2e-05	0
1028	-1e-05	1e-05	2e-05	-1e-05	3e-05	-3e-05	0	-1e-05	0
1029	-1e-05	1e-05	2e-05	-1e-05	3e-05	-3e-05	0	-1e-05	0
1030	-1e-05	1e-05	2e-05	-1e-05	3e-05	-3e-05	0	-1e-05	0
1031	-1e-05	1e-05	2e-05	-1e-05	3e-05	-3e-05	0	-1e-05	0
1032	-1e-05	1e-05	2e-05	-1e-05	3e-05	-3e-05	0	-1e-05	0
1033	-1e-05	1e-05	2e-05	-1e-05	3e-05	-3e-05	0	-1e-05	0
1035	-1e-05	1e-05	2e-05	-1e-05	3e-05	-3e-05	0	-1e-05	0
1036	-1e-05	1e-05	2e-05	-1e-05	3e-05	-3e-05	0	-1e-05	0
1038	-1e-05	1e-05	2e-05	-1e-05	3e-05	-3e-05	0	-1e-05	0
1040	-1e-05	1e-05	2e-05	-1e-05	3e-05	-3e-05	0	-1e-05	0
1041	-1e-05	1e-05	2e-05	-1e-05	3e-05	-3e-05	0	-1e-05	0
1042	-1e-05	1e-05	2e-05	-1e-05	3e-05	-3e-05	0	-1e-05	0
1043	-1e-05	1e-05	2e-05	-1e-05	3e-05	-3e-05	0	-1e-05	0
1044	-1e-05	1e-05	2e-05	-1e-05	3e-05	-3e-05	0	-1e-05	0
1045	-1e-05	1e-05	2e-05	-1e-05	3e-05	-3e-05	0	-1e-05	0
1046	-1e-05	1e-05	2e-05	-1e-05	3e-05	-3e-05	0	-1e-05	0
1047	-1e-05	1e-05	2e-05	-1e-05	3e-05	-3e-05	0	-1e-05	0
1048	0	-3e-05	-9e-05	-0.0001	-9e-05	-1e-05	-1e-05	0	0
1049	2e-05	2e-05	4e-05	-2e-05	2e-05	0	-1e-05	0	0
1050	0	1e-05	-3e-05	0.00011	0.00016	0	0	-2e-05	0
1051	0	1e-05	-3e-05	0.00011	0.00016	0	0	-2e-05	0
1052	0	1e-05	-3e-05	0.00011	0.00016	0	0	-2e-05	0
1053	0	1e-05	-3e-05	0.00011	0.00016	0	0	-2e-05	0
1054	0	1e-05	-3e-05	0.00011	0.00016	0	0	-2e-05	0
1055	0	1e-05	-3e-05	0.00011	0.00016	0	0	-2e-05	0
1056	0	1e-05	-3e-05	0.00011	0.00016	0	0	-2e-05	0
1057	0	1e-05	-3e-05	0.00011	0.00016	0	0	-2e-05	0
1058	0	1e-05	-3e-05	0.00011	0.00016	0	0	-2e-05	0
1059	0	1e-05	-3e-05	0.00011	0.00016	0	0	-2e-05	0
1060	0	1e-05	-3e-05	0.00011	0.00016	0	0	-2e-05	0
1061	0	1e-05	-3e-05	0.00011	0.00016	0	0	-2e-05	0
1062	0	1e-05	-3e-05	0.00011	0.00016	0	0	-2e-05	0
1063	0	1e-05	-3e-05	0.00011	0.00016	0	0	-2e-05	0
1064	0	1e-05	-3e-05	0.00011	0.00016	0	0	-2e-05	0
1065	0	1e-05	-3e-05	0.00011	0.00016	0	0	-2e-05	0
1066	0	1e-05	-3e-05	0.00011	0.00016	0	0	-2e-05	0
1067	0	1e-05	-3e-05	0.00011	0.00016	0	0	-2e-05	0
1068	0	1e-05	-3e-05	0.00011	0.00016	0	0	-2e-05	0
1069	0	1e-05	-3e-05	0.00011	0.00016	0	0	-2e-05	0
1070	-1e-05	0	-3e-05	2e-05	-0.00011	1e-05	0	-2e-05	0
1071	-1e-05	0	-3e-05	2e-05	-0.00011	1e-05	0	-2e-05	0
1072	0	0	-1e-05	-7e-05	-6e-05	0	-1e-05	-1e-05	0
1073	0	0	-1e-05	-7e-05	-6e-05	0	-1e-05	-1e-05	0
1074	0	0	-1e-05	-7e-05	-6e-05	0	-1e-05	-1e-05	0
1075	0	0	-1e-05	-7e-05	-6e-05	0	-1e-05	-1e-05	0
1076	0	0	-1e-05	-7e-05	-6e-05	0	-1e-05	-1e-05	0
1077	0	0	-1e-05	-7e-05	-6e-05	0	-1e-05	-1e-05	0
1078	0	0	-1e-05	-7e-05	-6e-05	0	-1e-05	-1e-05	0
1079	0	0	-1e-05	-7e-05	-6e-05	0	-1e-05	-1e-05	0
1080	0	0	-1e-05	-7e-05	-6e-05	0	-1e-05	-1e-05	0
1081	0	0	-1e-05	-7e-05	-6e-05	0	-1e-05	-1e-05	0
1082	0	0	-1e-05	-7e-05	-6e-05	0	-1e-05	-1e-05	0
1083	0	0	-1e-05	-7e-05	-6e-05	0	-1e-05	-1e-05	0
1084	0	0	-1e-05	-7e-05	-6e-05	0	-1e-05	-1e-05	0
1085	-1e-05	0	-2e-05	-2e-05	3e-05	0	-1e-05	0	0
1086	-2e-05	-2e-05	3e-05	6e-05	7e-05	0	-3e-05	1e-05	0
1088	-2e-05	0	-1e-05	-7e-05	-7e-05	0	0	-1e-05	0
1089	-2e-05	0	-1e-05	-7e-05	-7e-05	0	0	-1e-05	0
1090	-2e-05	0	-1e-05	-7e-05	-7e-05	0	0	-1e-05	0
1091	-2e-05	0	-1e-05	-7e-05	-7e-05	0	0	-1e-05	0
1092	-2e-05	0	-1e-05	-7e-05	-7e-05	0	0	-1e-05	0
1093	-2e-05	0	-1e-05	-7e-05	-7e-05	0	0	-1e-05	0
1094	-2e-05	0	-1e-05	-7e-05	-7e-05	0	0	-1e-05	0
1095	-2e-05	0	-1e-05	-7e-05	-7e-05	0	0	-1e-05	0
1096	-2e-05	0	-1e-05	-7e-05	-7e-05	0	0	-1e-05	0
1097	-2e-05	0	-1e-05	-7e-05	-7e-05	0	0	-1e-05	0
1098	-2e-05	0	-1e-05	-7e-05	-7e-05	0	0	-1e-05	0
1099	-2e-05	0	-1e-05	-7e-05	-7e-05	0	0	-1e-05	0
1100	-2e-05	0	-1e-05	-7e-05	-7e-05	0	0	-1e-05	0
1101	-2e-05	0	-1e-05	-7e-05	-7e-05	0	0	-1e-05	0
1102	-2e-05	0	-1e-05	-7e-05	-7e-05	0	0	-1e-05	0
1103	-2e-05	0	-1e-05	-7e-05	-7e-05	0	0	-1e-05	0
1104	-2e-05	0	-1e-05	-7e-05	-7e-05	0	0	-1e-05	0
1105	-2e-05	0	-1e-05	-7e-05	-7e-05	0	0	-1e-05	0
1106	-2e-05	0	-1e-05	-7e-05	-7e-05	0	0	-1e-05	0
1107	-2e-05	0	-1e-05	-7e-05	-7e-05	0	0	-1e-05	0
1108	-1e-05	-1e-05	-3e-05	2e-05	8e-05	3e-05	0	-2e-05	0
1109	-1e-05	-1e-05	-3e-05	2e-05	8e-05	3e-05	0	-2e-05	0
1110	-2e-05	-2e-05	-2e-05	-0.0001	-0.00011	-1e-05	0	-1e-05	0
1111	-2e-05	-2e-05	-2e-05	-0.0001	-0.00011	-1e-05	0	-1e-05	0
1112	-2e-05	-2e-05	-2e-05	-0.0001	-0.00011	-1e-05	0	-1e-05	0
1114	-2e-05	-2e-05	-2e-05	-0.0001	-0.00011	-1e-05	0	-1e-05	0
1115	-2e-05	-2e-05	-2e-05	-0.0001	-0.00011	-1e-05	0	-1e-05	0
1116	-2e-05	-2e-05	-2e-05	-0.0001	-0.00011	-1e-05	0	-1e-05	0
1117	-2e-05	-2e-05	-2e-05	-0.0001	-0.00011	-1e-05	0	-1e-05	0
1118	-2e-05	-2e-05	-2e-05	-0.0001	-0.00011	-1e-05	0	-1e-05	0
1119	-2e-05	-2e-05	-2e-05	-0.0001	-0.00011	-1e-05	0	-1e-05	0
1120	-2e-05	-2e-05	-2e-05	-0.0001	-0.00011	-1e-05	0	-1e-05	0
1121	-2e-05	-2e-05	-2e-05	-0.0001	-0.00011	-1e-05	0	-1e-05	0
1122	-2e-05	-2e-05	-2e-05	-0.0001	-0.00011	-1e-05	0	-1e-05	0
1123	-2e-05	-2e-05	-2e-05	-0.0001	-0.00011	-1e-05	0	-1e-05	0
1124	-2e-05	-2e-05	-2e-05	-0.0001	-0.00011	-1e-05	0	-1e-05	0
1125	-2e-05	-2e-05	-2e-05	-0.0001	-0.00011	-1e-05	0	-1e-05	0
1126	-2e-05	-2e-05	-2e-05	-0.0001	-0.00011	-1e-05	0	-1e-05	0
1127	-2e-05	-2e-05	-2e-05	-0.0001	-0.00011	-1e-05	0	-1e-05	0
1128	-2e-05	-2e-05	-2e-05	-0.0001	-0.00011	-1e-05	0	-1e-05	0
1129	-2e-05	-2e-05	-2e-05	-0.0001	-0.00011	-1e-05	0	-1e-05	0
1130	-2e-05	-2e-05	-2e-05	-0.0001	-0.00011	-1e-05	0	-1e-05	0
1131	0	1e-05	1e-05	-5e-05	0.00011	-4e-05	-1e-05	0	0
1132	-2e-05	-6e-05	-9e-05	-4e-05	-8e-05	-3e-05	-3e-05	-1e-05	0
1133	-2e-05	-6e-05	-9e-05	-4e-05	-8e-05	-3e-05	-3e-05	-1e-05	0
1134	-2e-05	-6e-05	-9e-05	-4e-05	-8e-05	-3e-05	-3e-05	-1e-05	0
1135	-2e-05	-6e-05	-9e-05	-4e-05	-8e-05	-3e-05	-3e-05	-1e-05	0
1136	-2e-05	-6e-05	-9e-05	-4e-05	-8e-05	-3e-05	-3e-05	-1e-05	0
1138	-2e-05	-6e-05	-9e-05	-4e-05	-8e-05	-3e-05	-3e-05	-1e-05	0
1139	-2e-05	-6e-05	-9e-05	-4e-05	-8e-05	-3e-05	-3e-05	-1e-05	0
1140	-2e-05	-6e-05	-9e-05	-4e-05	-8e-05	-3e-05	-3e-05	-1e-05	0
1141	-2e-05	-6e-05	-9e-05	-4e-05	-8e-05	-3e-05	-3e-05	-1e-05	0
1142	-2e-05	-6e-05	-9e-05	-4e-05	-8e-05	-3e-05	-3e-05	-1e-05	0
1143	-2e-05	-6e-05	-9e-05	-4e-05	-8e-05	-3e-05	-3e-05	-1e-05	0
1144	-2e-05	-6e-05	-9e-05	-4e-05	-8e-05	-3e-05	-3e-05	-1e-05	0
1145	-2e-05	-6e-05	-9e-05	-4e-05	-8e-05	-3e-05	-3e-05	-1e-05	0
1146	-1e-05	-3e-05	-8e-05	-2e-05	-1e-05	-1e-05	-1e-05	-2e-05	0
1147	-1e-05	-3e-05	-8e-05	-2e-05	-1e-05	-1e-05	-1e-05	-2e-05	0
1148	1e-05	2e-05	4e-05	0.00015	0.00012	0	0	-1e-05	0
1149	1e-05	2e-05	4e-05	0.00015	0.00012	0	0	-1e-05	0
1150	1e-05	2e-05	4e-05	0.00015	0.00012	0	0	-1e-05	0
1151	1e-05	2e-05	4e-05	0.00015	0.00012	0	0	-1e-05	0
1152	1e-05	2e-05	4e-05	0.00015	0.00012	0	0	-1e-05	0
1153	1e-05	2e-05	4e-05	0.00015	0.00012	0	0	-1e-05	0
1154	1e-05	2e-05	4e-05	0.00015	0.00012	0	0	-1e-05	0
1155	1e-05	2e-05	4e-05	0.00015	0.00012	0	0	-1e-05	0
1156	1e-05	2e-05	4e-05	0.00015	0.00012	0	0	-1e-05	0
1157	1e-05	2e-05	4e-05	0.00015	0.00012	0	0	-1e-05	0
1159	1e-05	2e-05	4e-05	0.00015	0.00012	0	0	-1e-05	0
1160	1e-05	2e-05	4e-05	0.00015	0.00012	0	0	-1e-05	0
1161	1e-05	2e-05	4e-05	0.00015	0.00012	0	0	-1e-05	0
1162	1e-05	2e-05	4e-05	0.00015	0.00012	0	0	-1e-05	0
1163	1e-05	2e-05	4e-05	0.00015	0.00012	0	0	-1e-05	0
1164	1e-05	2e-05	4e-05	0.00015	0.00012	0	0	-1e-05	0
1165	1e-05	2e-05	4e-05	0.00015	0.00012	0	0	-1e-05	0
1166	1e-05	2e-05	4e-05	0.00015	0.00012	0	0	-1e-05	0
1167	1e-05	2e-05	4e-05	0.00015	0.00012	0	0	-1e-05	0
1168	1e-05	2e-05	4e-05	0.00015	0.00012	0	0	-1e-05	0
1169	1e-05	2e-05	4e-05	0.00015	0.00012	0	0	-1e-05	0
1170	1e-05	2e-05	4e-05	0.00015	0.00012	0	0	-1e-05	0
1171	1e-05	2e-05	4e-05	0.00015	0.00012	0	0	-1e-05	0
1172	1e-05	2e-05	4e-05	0.00015	0.00012	0	0	-1e-05	0
1173	1e-05	2e-05	4e-05	0.00015	0.00012	0	0	-1e-05	0
1174	1e-05	2e-05	4e-05	0.00015	0.00012	0	0	-1e-05	0
1175	1e-05	2e-05	4e-05	0.00015	0.00012	0	0	-1e-05	0
1176	-1e-05	-1e-05	0	0.00016	7e-05	-2e-05	1e-05	1e-05	0
1177	0	0	-5e-05	-5e-05	-2e-05	0	-1e-05	-1e-05	0
1178	0	0	-5e-05	-5e-05	-2e-05	0	-1e-05	-1e-05	0
1179	0	0	-5e-05	-5e-05	-2e-05	0	-1e-05	-1e-05	0
1180	0	0	-5e-05	-5e-05	-2e-05	0	-1e-05	-1e-05	0
1181	0	0	-5e-05	-5e-05	-2e-05	0	-1e-05	-1e-05	0
1182	0	0	-5e-05	-5e-05	-2e-05	0	-1e-05	-1e-05	0
1183	0	0	-5e-05	-5e-05	-2e-05	0	-1e-05	-1e-05	0
1184	0	0	-5e-05	-5e-05	-2e-05	0	-1e-05	-1e-05	0
1185	0	0	-5e-05	-5e-05	-2e-05	0	-1e-05	-1e-05	0
1186	0	0	-5e-05	-5e-05	-2e-05	0	-1e-05	-1e-05	0
1188	0	0	-5e-05	-5e-05	-2e-05	0	-1e-05	-1e-05	0
1189	0	0	-5e-05	-5e-05	-2e-05	0	-1e-05	-1e-05	0
1190	-1e-05	-1e-05	-4e-05	-4e-05	-2e-05	-2e-05	-2e-05	-2e-05	0
1191	-1e-05	-1e-05	-4e-05	-4e-05	-2e-05	-2e-05	-2e-05	-2e-05	0
1192	-1e-05	0	-1e-05	1e-05	-1e-05	-2e-05	-3e-05	1e-05	0
1193	-1e-05	0	-1e-05	1e-05	-1e-05	-2e-05	-3e-05	1e-05	0
1194	-1e-05	0	-1e-05	1e-05	-1e-05	-2e-05	-3e-05	1e-05	0
1195	-1e-05	0	-1e-05	1e-05	-1e-05	-2e-05	-3e-05	1e-05	0
1196	-1e-05	0	-1e-05	1e-05	-1e-05	-2e-05	-3e-05	1e-05	0
1197	-1e-05	0	-1e-05	1e-05	-1e-05	-2e-05	-3e-05	1e-05	0
1198	-1e-05	0	-1e-05	1e-05	-1e-05	-2e-05	-3e-05	1e-05	0
1199	-1e-05	0	-1e-05	1e-05	-1e-05	-2e-05	-3e-05	1e-05	0
1200	-1e-05	0	-1e-05	1e-05	-1e-05	-2e-05	-3e-05	1e-05	0
1201	-1e-05	0	-1e-05	1e-05	-1e-05	-2e-05	-3e-05	1e-05	0
1202	-1e-05	0	-1e-05	1e-05	-1e-05	-2e-05	-3e-05	1e-05	0
1203	-1e-05	0	-1e-05	1e-05	-1e-05	-2e-05	-3e-05	1e-05	0
1204	-1e-05	0	-1e-05	1e-05	-1e-05	-2e-05	-3e-05	1e-05	0
1205	-1e-05	0	-1e-05	1e-05	-1e-05	-2e-05	-3e-05	1e-05	0
1206	-2e-05	-1e-05	0	7e-05	9e-05	0	0	1e-05	0
1207	-2e-05	-3e-05	-4e-05	-7e-05	-4e-05	-3e-05	-2e-05	0	0
1208	-2e-05	-3e-05	-4e-05	-7e-05	-4e-05	-3e-05	-2e-05	0	0
1209	-2e-05	-3e-05	-4e-05	-7e-05	-4e-05	-3e-05	-2e-05	0	0
1210	-2e-05	-3e-05	-4e-05	-7e-05	-4e-05	-3e-05	-2e-05	0	0
1211	-2e-05	-3e-05	-4e-05	-7e-05	-4e-05	-3e-05	-2e-05	0	0
1212	-2e-05	-3e-05	-4e-05	-7e-05	-4e-05	-3e-05	-2e-05	0	0
1213	-2e-05	-3e-05	-4e-05	-7e-05	-4e-05	-3e-05	-2e-05	0	0
1214	-2e-05	-3e-05	-4e-05	-7e-05	-4e-05	-3e-05	-2e-05	0	0
1215	-2e-05	-3e-05	-4e-05	-7e-05	-4e-05	-3e-05	-2e-05	0	0
1216	-2e-05	-3e-05	-4e-05	-7e-05	-4e-05	-3e-05	-2e-05	0	0
1217	-2e-05	-3e-05	-4e-05	-7e-05	-4e-05	-3e-05	-2e-05	0	0
1218	-2e-05	-3e-05	-4e-05	-7e-05	-4e-05	-3e-05	-2e-05	0	0
1219	-2e-05	-3e-05	-4e-05	-7e-05	-4e-05	-3e-05	-2e-05	0	0
1220	-2e-05	-3e-05	-4e-05	-7e-05	-4e-05	-3e-05	-2e-05	0	0
1221	-2e-05	-3e-05	-4e-05	-7e-05	-4e-05	-3e-05	-2e-05	0	0
1222	-2e-05	-3e-05	-4e-05	-7e-05	-4e-05	-3e-05	-2e-05	0	0
1223	-2e-05	-3e-05	-4e-05	-7e-05	-4e-05	-3e-05	-2e-05	0	0
1224	-2e-05	-3e-05	-4e-05	-7e-05	-4e-05	-3e-05	-2e-05	0	0
1225	-2e-05	-3e-05	-4e-05	-7e-05	-4e-05	-3e-05	-2e-05	0	0
1226	-2e-05	-3e-05	-4e-05	-7e-05	-4e-05	-3e-05	-2e-05	0	0
1227	-2e-05	-3e-05	-4e-05	-7e-05	-4e-05	-3e-05	-2e-05	0	0
1228	0	-1e-05	0	-2e-05	4e-05	-1e-05	-1e-05	-1e-05	0
1229	0	-1e-05	0	-2e-05	4e-05	-1e-05	-1e-05	-1e-05	0
1230	0	-1e-05	0	-2e-05	4e-05	-1e-05	-1e-05	-1e-05	0
1231	0	-1e-05	0	-2e-05	4e-05	-1e-05	-1e-05	-1e-05	0
1232	0	-1e-05	0	-2e-05	4e-05	-1e-05	-1e-05	-1e-05	0
1233	0	-1e-05	0	-2e-05	4e-05	-1e-05	-1e-05	-1e-05	0
1234	0	-1e-05	0	-2e-05	4e-05	-1e-05	-1e-05	-1e-05	0
1235	0	-1e-05	0	-2e-05	4e-05	-1e-05	-1e-05	-1e-05	0
1236	0	0	2e-05	-2e-05	1e-05	0	0	0	0
1239	0	0	2e-05	-2e-05	1e-05	0	0	0	0
1240	0	0	2e-05	-2e-05	1e-05	0	0	0	0
1241	0	0	2e-05	-2e-05	1e-05	0	0	0	0
1242	0	0	2e-05	-2e-05	1e-05	0	0	0	0
1243	0	0	2e-05	-2e-05	1e-05	0	0	0	0
1244	0	0	2e-05	-2e-05	1e-05	0	0	0	0
1245	0	0	2e-05	-2e-05	1e-05	0	0	0	0
1246	0	0	2e-05	-2e-05	1e-05	0	0	0	0
1247	0	0	2e-05	-2e-05	1e-05	0	0	0	0
1248	0	0	2e-05	-2e-05	1e-05	0	0	0	0
1249	0	0	2e-05	-2e-05	1e-05	0	0	0	0
1250	0	0	2e-05	-2e-05	1e-05	0	0	0	0
1251	-2e-05	-1e-05	0	-6e-05	2e-05	0	-1e-05	0	0
1252	-2e-05	-1e-05	0	-6e-05	2e-05	0	-1e-05	0	0
1253	-1e-05	0	3e-05	-4e-05	7e-05	1e-05	-2e-05	0	0
1254	-1e-05	0	3e-05	-4e-05	7e-05	1e-05	-2e-05	0	0
1255	-1e-05	0	3e-05	-4e-05	7e-05	1e-05	-2e-05	0	0
1256	-1e-05	0	3e-05	-4e-05	7e-05	1e-05	-2e-05	0	0
1257	-1e-05	0	3e-05	-4e-05	7e-05	1e-05	-2e-05	0	0
1258	-1e-05	0	3e-05	-4e-05	7e-05	1e-05	-2e-05	0	0
1259	-1e-05	0	3e-05	-4e-05	7e-05	1e-05	-2e-05	0	0
1260	-1e-05	0	3e-05	-4e-05	7e-05	1e-05	-2e-05	0	0
1261	-1e-05	0	3e-05	-4e-05	7e-05	1e-05	-2e-05	0	0
1262	-1e-05	0	3e-05	-4e-05	7e-05	1e-05	-2e-05	0	0
1263	-1e-05	0	3e-05	-4e-05	7e-05	1e-05	-2e-05	0	0
1264	-1e-05	0	3e-05	-4e-05	7e-05	1e-05	-2e-05	0	0
1265	-1e-05	0	3e-05	-4e-05	7e-05	1e-05	-2e-05	0	0
1266	0	-3e-05	-5e-05	-1e-05	-3e-05	1e-05	0	1e-05	0
1267	0	-3e-05	-5e-05	-1e-05	-3e-05	1e-05	0	1e-05	0
1268	0	-3e-05	-5e-05	-1e-05	-3e-05	1e-05	0	1e-05	0
1269	0	-3e-05	-5e-05	-1e-05	-3e-05	1e-05	0	1e-05	0
1270	0	-3e-05	-5e-05	-1e-05	-3e-05	1e-05	0	1e-05	0
1271	0	-3e-05	-5e-05	-1e-05	-3e-05	1e-05	0	1e-05	0
1272	-3e-05	-1e-05	0	-0.00011	-0.00015	-2e-05	-2e-05	0	0
1273	-3e-05	-1e-05	0	-0.00011	-0.00015	-2e-05	-2e-05	0	0
1274	-3e-05	-1e-05	0	-0.00011	-0.00015	-2e-05	-2e-05	0	0
1275	-3e-05	-1e-05	0	-0.00011	-0.00015	-2e-05	-2e-05	0	0
1276	-3e-05	-1e-05	0	-0.00011	-0.00015	-2e-05	-2e-05	0	0
1277	-3e-05	-1e-05	0	-0.00011	-0.00015	-2e-05	-2e-05	0	0
1278	-3e-05	-1e-05	0	-0.00011	-0.00015	-2e-05	-2e-05	0	0
1279	-3e-05	-1e-05	0	-0.00011	-0.00015	-2e-05	-2e-05	0	0
1280	-3e-05	-1e-05	0	-0.00011	-0.00015	-2e-05	-2e-05	0	0
1281	-3e-05	-1e-05	0	-0.00011	-0.00015	-2e-05	-2e-05	0	0
1282	-3e-05	-1e-05	0	-0.00011	-0.00015	-2e-05	-2e-05	0	0
1283	-3e-05	-1e-05	0	-0.00011	-0.00015	-2e-05	-2e-05	0	0
1284	-3e-05	-1e-05	0	-0.00011	-0.00015	-2e-05	-2e-05	0	0
1285	-3e-05	-1e-05	0	-0.00011	-0.00015	-2e-05	-2e-05	0	0
1286	-3e-05	-1e-05	0	-0.00011	-0.00015	-2e-05	-2e-05	0	0
1289	-1e-05	2e-05	1e-05	-4e-05	-1e-05	0	-1e-05	-1e-05	0
1290	-1e-05	1e-05	6e-05	0.00012	0	-1e-05	-1e-05	-1e-05	0
1291	-1e-05	1e-05	6e-05	0.00012	0	-1e-05	-1e-05	-1e-05	0
1292	-1e-05	1e-05	6e-05	0.00012	0	-1e-05	-1e-05	-1e-05	0
1293	-1e-05	1e-05	6e-05	0.00012	0	-1e-05	-1e-05	-1e-05	0
1294	-1e-05	1e-05	6e-05	0.00012	0	-1e-05	-1e-05	-1e-05	0
1295	-1e-05	1e-05	6e-05	0.00012	0	-1e-05	-1e-05	-1e-05	0
1296	-1e-05	1e-05	6e-05	0.00012	0	-1e-05	-1e-05	-1e-05	0
1297	-1e-05	1e-05	6e-05	0.00012	0	-1e-05	-1e-05	-1e-05	0
1298	-1e-05	1e-05	6e-05	0.00012	0	-1e-05	-1e-05	-1e-05	0
1299	-1e-05	1e-05	6e-05	0.00012	0	-1e-05	-1e-05	-1e-05	0
1300	-1e-05	1e-05	6e-05	0.00012	0	-1e-05	-1e-05	-1e-05	0
1301	-1e-05	1e-05	6e-05	0.00012	0	-1e-05	-1e-05	-1e-05	0
1302	-1e-05	1e-05	6e-05	0.00012	0	-1e-05	-1e-05	-1e-05	0
1303	-1e-05	1e-05	6e-05	0.00012	0	-1e-05	-1e-05	-1e-05	0
1304	-1e-05	1e-05	6e-05	0.00012	0	-1e-05	-1e-05	-1e-05	0
1305	-1e-05	1e-05	6e-05	0.00012	0	-1e-05	-1e-05	-1e-05	0
1306	-1e-05	1e-05	6e-05	0.00012	0	-1e-05	-1e-05	-1e-05	0
1307	-1e-05	1e-05	6e-05	0.00012	0	-1e-05	-1e-05	-1e-05	0
1308	-1e-05	1e-05	6e-05	0.00012	0	-1e-05	-1e-05	-1e-05	0
1309	-1e-05	1e-05	6e-05	0.00012	0	-1e-05	-1e-05	-1e-05	0
1310	-1e-05	1e-05	6e-05	0.00012	0	-1e-05	-1e-05	-1e-05	0
1311	-2e-05	-3e-05	-1e-05	-2e-05	-1e-05	-1e-05	-1e-05	-2e-05	0
1312	-1e-05	-1e-05	0	-8e-05	-9e-05	-2e-05	-1e-05	-2e-05	0
1313	-1e-05	-1e-05	0	-8e-05	-9e-05	-2e-05	-1e-05	-2e-05	0
1314	-1e-05	-1e-05	0	-8e-05	-9e-05	-2e-05	-1e-05	-2e-05	0
1315	-1e-05	-1e-05	0	-8e-05	-9e-05	-2e-05	-1e-05	-2e-05	0
1316	-1e-05	-1e-05	0	-8e-05	-9e-05	-2e-05	-1e-05	-2e-05	0
1317	-1e-05	-1e-05	0	-8e-05	-9e-05	-2e-05	-1e-05	-2e-05	0
1318	-1e-05	-1e-05	0	-8e-05	-9e-05	-2e-05	-1e-05	-2e-05	0
1319	-1e-05	-1e-05	0	-8e-05	-9e-05	-2e-05	-1e-05	-2e-05	0
1320	-1e-05	-1e-05	0	-8e-05	-9e-05	-2e-05	-1e-05	-2e-05	0
1321	-1e-05	-1e-05	0	-8e-05	-9e-05	-2e-05	-1e-05	-2e-05	0
1322	-1e-05	-1e-05	0	-8e-05	-9e-05	-2e-05	-1e-05	-2e-05	0
1323	-1e-05	-1e-05	0	-8e-05	-9e-05	-2e-05	-1e-05	-2e-05	0
1324	-1e-05	-1e-05	0	-8e-05	-9e-05	-2e-05	-1e-05	-2e-05	0
1325	-2e-05	-6e-05	-2e-05	-4e-05	-8e-05	-2e-05	0	-1e-05	0
1326	-2e-05	-6e-05	-2e-05	-4e-05	-8e-05	-2e-05	0	-1e-05	0
1327	-2e-05	-6e-05	-2e-05	-4e-05	-8e-05	-2e-05	0	-1e-05	0
1328	-2e-05	-6e-05	-2e-05	-4e-05	-8e-05	-2e-05	0	-1e-05	0
1329	-2e-05	-6e-05	-2e-05	-4e-05	-8e-05	-2e-05	0	-1e-05	0
1330	-2e-05	-6e-05	-2e-05	-4e-05	-8e-05	-2e-05	0	-1e-05	0
1331	-2e-05	-6e-05	-2e-05	-4e-05	-8e-05	-2e-05	0	-1e-05	0
1332	-1e-05	-1e-05	-3e-05	-7e-05	-6e-05	1e-05	0	-1e-05	0
1333	-1e-05	-1e-05	-3e-05	-7e-05	-6e-05	1e-05	0	-1e-05	0
1334	-1e-05	-1e-05	-3e-05	-7e-05	-6e-05	1e-05	0	-1e-05	0
1335	-1e-05	-1e-05	-3e-05	-7e-05	-6e-05	1e-05	0	-1e-05	0
1336	-1e-05	-1e-05	-3e-05	-7e-05	-6e-05	1e-05	0	-1e-05	0
1338	-1e-05	-1e-05	-3e-05	-7e-05	-6e-05	1e-05	0	-1e-05	0
1339	-1e-05	-1e-05	-3e-05	-7e-05	-6e-05	1e-05	0	-1e-05	0
1340	-1e-05	-1e-05	-3e-05	-7e-05	-6e-05	1e-05	0	-1e-05	0
1341	-1e-05	-1e-05	-3e-05	-7e-05	-6e-05	1e-05	0	-1e-05	0
1342	-1e-05	-1e-05	-3e-05	-7e-05	-6e-05	1e-05	0	-1e-05	0
1343	-1e-05	-1e-05	-3e-05	-7e-05	-6e-05	1e-05	0	-1e-05	0
1344	-1e-05	-1e-05	-3e-05	-7e-05	-6e-05	1e-05	0	-1e-05	0
1345	-1e-05	-1e-05	-3e-05	-7e-05	-6e-05	1e-05	0	-1e-05	0
1346	-1e-05	-1e-05	-3e-05	-7e-05	-6e-05	1e-05	0	-1e-05	0
1347	-1e-05	-1e-05	-3e-05	-7e-05	-6e-05	1e-05	0	-1e-05	0
1348	1e-05	3e-05	5e-05	-3e-05	0.0001	-1e-05	-1e-05	0	0
1349	1e-05	3e-05	5e-05	-3e-05	0.0001	-1e-05	-1e-05	0	0
1350	-1e-05	-2e-05	-4e-05	-2e-05	-8e-05	-1e-05	-1e-05	-1e-05	0
1351	-1e-05	-2e-05	-4e-05	-2e-05	-8e-05	-1e-05	-1e-05	-1e-05	0
1352	-1e-05	-2e-05	-4e-05	-2e-05	-8e-05	-1e-05	-1e-05	-1e-05	0
1353	-1e-05	-2e-05	-4e-05	-2e-05	-8e-05	-1e-05	-1e-05	-1e-05	0
1354	-1e-05	-2e-05	-4e-05	-2e-05	-8e-05	-1e-05	-1e-05	-1e-05	0
1355	-1e-05	-2e-05	-4e-05	-2e-05	-8e-05	-1e-05	-1e-05	-1e-05	0
1356	-1e-05	-2e-05	-4e-05	-2e-05	-8e-05	-1e-05	-1e-05	-1e-05	0
1357	-1e-05	-2e-05	-4e-05	-2e-05	-8e-05	-1e-05	-1e-05	-1e-05	0
1358	-1e-05	-2e-05	-4e-05	-2e-05	-8e-05	-1e-05	-1e-05	-1e-05	0
1359	-1e-05	-2e-05	-4e-05	-2e-05	-8e-05	-1e-05	-1e-05	-1e-05	0
1360	-1e-05	-2e-05	-4e-05	-2e-05	-8e-05	-1e-05	-1e-05	-1e-05	0
1361	-1e-05	-2e-05	-4e-05	-2e-05	-8e-05	-1e-05	-1e-05	-1e-05	0
1362	-1e-05	-2e-05	-4e-05	-2e-05	-8e-05	-1e-05	-1e-05	-1e-05	0
1363	-1e-05	-2e-05	-4e-05	-2e-05	-8e-05	-1e-05	-1e-05	-1e-05	0
1364	-1e-05	-2e-05	-4e-05	-2e-05	-8e-05	-1e-05	-1e-05	-1e-05	0
1365	-1e-05	-2e-05	-4e-05	-2e-05	-8e-05	-1e-05	-1e-05	-1e-05	0
1366	-1e-05	-2e-05	-4e-05	-2e-05	-8e-05	-1e-05	-1e-05	-1e-05	0
1367	-1e-05	-2e-05	-4e-05	-2e-05	-8e-05	-1e-05	-1e-05	-1e-05	0
1368	-1e-05	-2e-05	-4e-05	-2e-05	-8e-05	-1e-05	-1e-05	-1e-05	0
1369	-1e-05	-2e-05	-4e-05	-2e-05	-8e-05	-1e-05	-1e-05	-1e-05	0
1370	0	-3e-05	-4e-05	1e-05	0.00011	-3e-05	0	0	0
1371	1e-05	0	-1e-05	-5e-05	-8e-05	-1e-05	-2e-05	-1e-05	0
1372	-2e-05	-7e-05	-9e-05	-7e-05	9e-05	-2e-05	-2e-05	-1e-05	0
1373	-2e-05	-7e-05	-9e-05	-7e-05	9e-05	-2e-05	-2e-05	-1e-05	0
1374	-2e-05	-7e-05	-9e-05	-7e-05	9e-05	-2e-05	-2e-05	-1e-05	0
1375	-2e-05	-7e-05	-9e-05	-7e-05	9e-05	-2e-05	-2e-05	-1e-05	0
1376	-2e-05	-7e-05	-9e-05	-7e-05	9e-05	-2e-05	-2e-05	-1e-05	0
1377	-2e-05	-7e-05	-9e-05	-7e-05	9e-05	-2e-05	-2e-05	-1e-05	0
1378	-2e-05	-7e-05	-9e-05	-7e-05	9e-05	-2e-05	-2e-05	-1e-05	0
1379	-2e-05	-7e-05	-9e-05	-7e-05	9e-05	-2e-05	-2e-05	-1e-05	0
1380	-2e-05	-7e-05	-9e-05	-7e-05	9e-05	-2e-05	-2e-05	-1e-05	0
1381	-2e-05	-7e-05	-9e-05	-7e-05	9e-05	-2e-05	-2e-05	-1e-05	0
1382	-2e-05	-7e-05	-9e-05	-7e-05	9e-05	-2e-05	-2e-05	-1e-05	0
1383	-2e-05	-7e-05	-9e-05	-7e-05	9e-05	-2e-05	-2e-05	-1e-05	0
1384	-2e-05	-7e-05	-9e-05	-7e-05	9e-05	-2e-05	-2e-05	-1e-05	0
1385	-2e-05	-7e-05	-9e-05	-7e-05	9e-05	-2e-05	-2e-05	-1e-05	0
1386	-2e-05	-7e-05	-9e-05	-7e-05	9e-05	-2e-05	-2e-05	-1e-05	0
1388	-2e-05	-7e-05	-9e-05	-7e-05	9e-05	-2e-05	-2e-05	-1e-05	0
1389	-2e-05	-7e-05	-9e-05	-7e-05	9e-05	-2e-05	-2e-05	-1e-05	0
1390	-2e-05	-7e-05	-9e-05	-7e-05	9e-05	-2e-05	-2e-05	-1e-05	0
1391	-2e-05	-7e-05	-9e-05	-7e-05	9e-05	-2e-05	-2e-05	-1e-05	0
1392	-2e-05	-7e-05	-9e-05	-7e-05	9e-05	-2e-05	-2e-05	-1e-05	0
1394	1e-05	0	1e-05	7e-05	-2e-05	-2e-05	-2e-05	-1e-05	0
1395	-3e-05	-6e-05	-0.00012	6e-05	0.00015	0	2e-05	-2e-05	0
1396	-3e-05	-6e-05	-0.00012	6e-05	0.00015	0	2e-05	-2e-05	0
1397	-3e-05	-6e-05	-0.00012	6e-05	0.00015	0	2e-05	-2e-05	0
3839	-3e-05	-3e-05	0	-4e-05	1e-05	0	0	-1e-05	0
3840	-3e-05	-3e-05	0	-4e-05	1e-05	0	0	-1e-05	0
3841	-3e-05	-3e-05	0	-4e-05	1e-05	0	0	-1e-05	0
3842	-3e-05	-3e-05	0	-4e-05	1e-05	0	0	-1e-05	0
3843	-3e-05	-3e-05	0	-4e-05	1e-05	0	0	-1e-05	0
3844	-3e-05	-3e-05	0	-4e-05	1e-05	0	0	-1e-05	0
3845	-3e-05	-3e-05	0	-4e-05	1e-05	0	0	-1e-05	0
3846	-3e-05	-3e-05	0	-4e-05	1e-05	0	0	-1e-05	0
3847	-3e-05	-3e-05	0	-4e-05	1e-05	0	0	-1e-05	0
3848	-3e-05	-3e-05	0	-4e-05	1e-05	0	0	-1e-05	0
3849	-3e-05	-3e-05	0	-4e-05	1e-05	0	0	-1e-05	0
3850	-3e-05	-3e-05	0	-4e-05	1e-05	0	0	-1e-05	0
3851	-3e-05	-3e-05	0	-4e-05	1e-05	0	0	-1e-05	0
3852	-3e-05	-3e-05	0	-4e-05	1e-05	0	0	-1e-05	0
3853	0	1e-05	-2e-05	-4e-05	-0.00014	-5e-05	-3e-05	-2e-05	0
3854	2e-05	2e-05	4e-05	-3e-05	-0.00013	-2e-05	-2e-05	1e-05	0
3855	2e-05	2e-05	4e-05	-3e-05	-0.00013	-2e-05	-2e-05	1e-05	0
3856	2e-05	2e-05	4e-05	-3e-05	-0.00013	-2e-05	-2e-05	1e-05	0
3857	2e-05	2e-05	4e-05	-3e-05	-0.00013	-2e-05	-2e-05	1e-05	0
3858	2e-05	2e-05	4e-05	-3e-05	-0.00013	-2e-05	-2e-05	1e-05	0
3859	2e-05	2e-05	4e-05	-3e-05	-0.00013	-2e-05	-2e-05	1e-05	0
3860	2e-05	2e-05	4e-05	-3e-05	-0.00013	-2e-05	-2e-05	1e-05	0
3861	2e-05	2e-05	4e-05	-3e-05	-0.00013	-2e-05	-2e-05	1e-05	0
3862	2e-05	2e-05	4e-05	-3e-05	-0.00013	-2e-05	-2e-05	1e-05	0
3863	2e-05	2e-05	4e-05	-3e-05	-0.00013	-2e-05	-2e-05	1e-05	0
3864	2e-05	2e-05	4e-05	-3e-05	-0.00013	-2e-05	-2e-05	1e-05	0
3865	2e-05	2e-05	4e-05	-3e-05	-0.00013	-2e-05	-2e-05	1e-05	0
3866	2e-05	2e-05	4e-05	-3e-05	-0.00013	-2e-05	-2e-05	1e-05	0
3867	2e-05	2e-05	4e-05	-3e-05	-0.00013	-2e-05	-2e-05	1e-05	0
3868	2e-05	2e-05	4e-05	-3e-05	-0.00013	-2e-05	-2e-05	1e-05	0
3869	2e-05	2e-05	4e-05	-3e-05	-0.00013	-2e-05	-2e-05	1e-05	0
3870	2e-05	2e-05	4e-05	-3e-05	-0.00013	-2e-05	-2e-05	1e-05	0
3871	2e-05	2e-05	4e-05	-3e-05	-0.00013	-2e-05	-2e-05	1e-05	0
3872	2e-05	2e-05	4e-05	-3e-05	-0.00013	-2e-05	-2e-05	1e-05	0
3873	2e-05	2e-05	4e-05	-3e-05	-0.00013	-2e-05	-2e-05	1e-05	0
3874	2e-05	2e-05	4e-05	-3e-05	-0.00013	-2e-05	-2e-05	1e-05	0
3875	2e-05	2e-05	4e-05	-3e-05	-0.00013	-2e-05	-2e-05	1e-05	0
3876	0	-2e-05	5e-05	2e-05	0	-5e-05	-1e-05	-2e-05	0
3877	-1e-05	-2e-05	-6e-05	0	-5e-05	0	0	-1e-05	0
3878	-1e-05	-2e-05	-6e-05	0	-5e-05	0	0	-1e-05	0
3879	-1e-05	-2e-05	-6e-05	0	-5e-05	0	0	-1e-05	0
3880	-1e-05	-2e-05	-6e-05	0	-5e-05	0	0	-1e-05	0
3881	-1e-05	-2e-05	-6e-05	0	-5e-05	0	0	-1e-05	0
3882	-1e-05	-2e-05	-6e-05	0	-5e-05	0	0	-1e-05	0
3883	-1e-05	-2e-05	-6e-05	0	-5e-05	0	0	-1e-05	0
3884	-1e-05	-2e-05	-6e-05	0	-5e-05	0	0	-1e-05	0
3885	-1e-05	-2e-05	-6e-05	0	-5e-05	0	0	-1e-05	0
3886	-1e-05	-2e-05	-6e-05	0	-5e-05	0	0	-1e-05	0
3888	-1e-05	-2e-05	-6e-05	0	-5e-05	0	0	-1e-05	0
3889	-1e-05	-2e-05	-6e-05	0	-5e-05	0	0	-1e-05	0
3890	-1e-05	-2e-05	-6e-05	0	-5e-05	0	0	-1e-05	0
3891	-1e-05	-2e-05	-6e-05	0	-5e-05	0	0	-1e-05	0
3892	-1e-05	-2e-05	-6e-05	0	-5e-05	0	0	-1e-05	0
3893	-1e-05	-2e-05	-6e-05	0	-5e-05	0	0	-1e-05	0
3894	-1e-05	-2e-05	-6e-05	0	-5e-05	0	0	-1e-05	0
3895	-1e-05	-2e-05	-6e-05	0	-5e-05	0	0	-1e-05	0
3896	-1e-05	-2e-05	-6e-05	0	-5e-05	0	0	-1e-05	0
3897	-1e-05	-2e-05	-6e-05	0	-5e-05	0	0	-1e-05	0
3898	-1e-05	-2e-05	-6e-05	0	-5e-05	0	0	-1e-05	0
3899	-1e-05	0	1e-05	0	0.00012	0	-1e-05	0	0
3900	-1e-05	-1e-05	-2e-05	-0.00011	-1e-05	-3e-05	-1e-05	-1e-05	0
3901	-1e-05	-1e-05	-2e-05	-0.00011	-1e-05	-3e-05	-1e-05	-1e-05	0
3902	-1e-05	-1e-05	-2e-05	-0.00011	-1e-05	-3e-05	-1e-05	-1e-05	0
3903	-1e-05	-1e-05	-2e-05	-0.00011	-1e-05	-3e-05	-1e-05	-1e-05	0
3904	-1e-05	-1e-05	-2e-05	-0.00011	-1e-05	-3e-05	-1e-05	-1e-05	0
3905	-1e-05	-1e-05	-2e-05	-0.00011	-1e-05	-3e-05	-1e-05	-1e-05	0
3906	-1e-05	-1e-05	-2e-05	-0.00011	-1e-05	-3e-05	-1e-05	-1e-05	0
3907	-1e-05	-1e-05	-2e-05	-0.00011	-1e-05	-3e-05	-1e-05	-1e-05	0
3908	-1e-05	-1e-05	-2e-05	-0.00011	-1e-05	-3e-05	-1e-05	-1e-05	0
3909	-1e-05	-1e-05	-2e-05	-0.00011	-1e-05	-3e-05	-1e-05	-1e-05	0
3910	-1e-05	-1e-05	-2e-05	-0.00011	-1e-05	-3e-05	-1e-05	-1e-05	0
3911	-1e-05	-1e-05	-2e-05	-0.00011	-1e-05	-3e-05	-1e-05	-1e-05	0
3912	-1e-05	-1e-05	-2e-05	-0.00011	-1e-05	-3e-05	-1e-05	-1e-05	0
3913	-2e-05	-1e-05	1e-05	4e-05	-1e-05	-2e-05	-2e-05	-1e-05	0
3914	0	-1e-05	1e-05	4e-05	-0.0001	0	-1e-05	-2e-05	0
3915	0	-1e-05	1e-05	4e-05	-0.0001	0	-1e-05	-2e-05	0
3916	0	-1e-05	1e-05	4e-05	-0.0001	0	-1e-05	-2e-05	0
3917	0	-1e-05	1e-05	4e-05	-0.0001	0	-1e-05	-2e-05	0
3918	0	-1e-05	1e-05	4e-05	-0.0001	0	-1e-05	-2e-05	0
3919	0	-1e-05	1e-05	4e-05	-0.0001	0	-1e-05	-2e-05	0
3920	0	-1e-05	1e-05	4e-05	-0.0001	0	-1e-05	-2e-05	0
3921	0	-1e-05	1e-05	4e-05	-0.0001	0	-1e-05	-2e-05	0
3922	0	-1e-05	1e-05	4e-05	-0.0001	0	-1e-05	-2e-05	0
3923	0	-1e-05	1e-05	4e-05	-0.0001	0	-1e-05	-2e-05	0
3924	0	-1e-05	1e-05	4e-05	-0.0001	0	-1e-05	-2e-05	0
3925	0	-1e-05	1e-05	4e-05	-0.0001	0	-1e-05	-2e-05	0
3926	0	-1e-05	1e-05	4e-05	-0.0001	0	-1e-05	-2e-05	0
3927	0	-1e-05	1e-05	4e-05	-0.0001	0	-1e-05	-2e-05	0
3928	0	-1e-05	1e-05	4e-05	-0.0001	0	-1e-05	-2e-05	0
3929	0	-1e-05	1e-05	4e-05	-0.0001	0	-1e-05	-2e-05	0
3930	0	-1e-05	1e-05	4e-05	-0.0001	0	-1e-05	-2e-05	0
3931	0	-1e-05	1e-05	4e-05	-0.0001	0	-1e-05	-2e-05	0
3932	0	-1e-05	1e-05	4e-05	-0.0001	0	-1e-05	-2e-05	0
3933	0	-1e-05	1e-05	4e-05	-0.0001	0	-1e-05	-2e-05	0
3934	0	-1e-05	1e-05	4e-05	-0.0001	0	-1e-05	-2e-05	0
3935	0	-1e-05	1e-05	4e-05	-0.0001	0	-1e-05	-2e-05	0
3936	-1e-05	-3e-05	-2e-05	-4e-05	-7e-05	-3e-05	-1e-05	-1e-05	0
3938	-3e-05	-4e-05	-0.00012	2e-05	2e-05	4e-05	-2e-05	-1e-05	0
3939	-3e-05	-4e-05	-0.00012	2e-05	2e-05	4e-05	-2e-05	-1e-05	0
3940	-3e-05	-4e-05	-0.00012	2e-05	2e-05	4e-05	-2e-05	-1e-05	0
3941	-3e-05	-4e-05	-0.00012	2e-05	2e-05	4e-05	-2e-05	-1e-05	0
3942	-3e-05	-4e-05	-0.00012	2e-05	2e-05	4e-05	-2e-05	-1e-05	0
3943	-3e-05	-4e-05	-0.00012	2e-05	2e-05	4e-05	-2e-05	-1e-05	0
3944	-3e-05	-4e-05	-0.00012	2e-05	2e-05	4e-05	-2e-05	-1e-05	0
3945	-3e-05	-4e-05	-0.00012	2e-05	2e-05	4e-05	-2e-05	-1e-05	0
3946	-3e-05	-4e-05	-0.00012	2e-05	2e-05	4e-05	-2e-05	-1e-05	0
3947	-3e-05	-4e-05	-0.00012	2e-05	2e-05	4e-05	-2e-05	-1e-05	0
3948	-3e-05	-4e-05	-0.00012	2e-05	2e-05	4e-05	-2e-05	-1e-05	0
3949	-3e-05	-4e-05	-0.00012	2e-05	2e-05	4e-05	-2e-05	-1e-05	0
3950	-3e-05	-4e-05	-0.00012	2e-05	2e-05	4e-05	-2e-05	-1e-05	0
3951	-3e-05	-4e-05	-0.00012	2e-05	2e-05	4e-05	-2e-05	-1e-05	0
3952	-3e-05	-4e-05	-0.00012	2e-05	2e-05	4e-05	-2e-05	-1e-05	0
3953	-3e-05	-4e-05	-0.00012	2e-05	2e-05	4e-05	-2e-05	-1e-05	0
3954	-3e-05	-4e-05	-0.00012	2e-05	2e-05	4e-05	-2e-05	-1e-05	0
3955	-3e-05	-4e-05	-0.00012	2e-05	2e-05	4e-05	-2e-05	-1e-05	0
3956	-3e-05	-4e-05	-0.00012	2e-05	2e-05	4e-05	-2e-05	-1e-05	0
3957	-3e-05	-4e-05	-0.00012	2e-05	2e-05	4e-05	-2e-05	-1e-05	0
3958	-3e-05	-4e-05	-0.00012	2e-05	2e-05	4e-05	-2e-05	-1e-05	0
3959	0	1e-05	3e-05	5e-05	3e-05	-1e-05	-1e-05	-1e-05	0
3960	0	-2e-05	-1e-05	0	4e-05	-3e-05	-2e-05	-1e-05	0
3961	0	-2e-05	-1e-05	0	4e-05	-3e-05	-2e-05	-1e-05	0
3962	0	-2e-05	-1e-05	0	4e-05	-3e-05	-2e-05	-1e-05	0
3963	0	-2e-05	-1e-05	0	4e-05	-3e-05	-2e-05	-1e-05	0
3964	0	-2e-05	-1e-05	0	4e-05	-3e-05	-2e-05	-1e-05	0
3965	0	-2e-05	-1e-05	0	4e-05	-3e-05	-2e-05	-1e-05	0
3966	0	-2e-05	-1e-05	0	4e-05	-3e-05	-2e-05	-1e-05	0
3967	0	-2e-05	-1e-05	0	4e-05	-3e-05	-2e-05	-1e-05	0
3968	0	-2e-05	-1e-05	0	4e-05	-3e-05	-2e-05	-1e-05	0
3969	0	-2e-05	-1e-05	0	4e-05	-3e-05	-2e-05	-1e-05	0
3970	0	-2e-05	-1e-05	0	4e-05	-3e-05	-2e-05	-1e-05	0
3971	0	-2e-05	-1e-05	0	4e-05	-3e-05	-2e-05	-1e-05	0
3972	0	-2e-05	-1e-05	0	4e-05	-3e-05	-2e-05	-1e-05	0
3973	0	0	-1e-05	-4e-05	0	-2e-05	-1e-05	-2e-05	0
3974	1e-05	2e-05	3e-05	-0.00011	-2e-05	-3e-05	0	-1e-05	0
3975	1e-05	2e-05	3e-05	-0.00011	-2e-05	-3e-05	0	-1e-05	0
3976	1e-05	2e-05	3e-05	-0.00011	-2e-05	-3e-05	0	-1e-05	0
3977	1e-05	2e-05	3e-05	-0.00011	-2e-05	-3e-05	0	-1e-05	0
3978	1e-05	2e-05	3e-05	-0.00011	-2e-05	-3e-05	0	-1e-05	0
3979	1e-05	2e-05	3e-05	-0.00011	-2e-05	-3e-05	0	-1e-05	0
3980	1e-05	2e-05	3e-05	-0.00011	-2e-05	-3e-05	0	-1e-05	0
3981	1e-05	2e-05	3e-05	-0.00011	-2e-05	-3e-05	0	-1e-05	0
3982	1e-05	2e-05	3e-05	-0.00011	-2e-05	-3e-05	0	-1e-05	0
3983	1e-05	2e-05	3e-05	-0.00011	-2e-05	-3e-05	0	-1e-05	0
3984	1e-05	2e-05	3e-05	-0.00011	-2e-05	-3e-05	0	-1e-05	0
3985	1e-05	2e-05	3e-05	-0.00011	-2e-05	-3e-05	0	-1e-05	0
3986	1e-05	2e-05	3e-05	-0.00011	-2e-05	-3e-05	0	-1e-05	0
3988	1e-05	2e-05	3e-05	-0.00011	-2e-05	-3e-05	0	-1e-05	0
3989	1e-05	2e-05	3e-05	-0.00011	-2e-05	-3e-05	0	-1e-05	0
3990	1e-05	2e-05	3e-05	-0.00011	-2e-05	-3e-05	0	-1e-05	0
3991	1e-05	2e-05	3e-05	-0.00011	-2e-05	-3e-05	0	-1e-05	0
3992	1e-05	2e-05	3e-05	-0.00011	-2e-05	-3e-05	0	-1e-05	0
3993	1e-05	2e-05	3e-05	-0.00011	-2e-05	-3e-05	0	-1e-05	0
3994	1e-05	2e-05	3e-05	-0.00011	-2e-05	-3e-05	0	-1e-05	0
3995	1e-05	2e-05	3e-05	-0.00011	-2e-05	-3e-05	0	-1e-05	0
3996	-1e-05	-4e-05	-0.00011	-5e-05	-2e-05	2e-05	1e-05	-1e-05	0
3997	-3e-05	-3e-05	-5e-05	3e-05	4e-05	0	-1e-05	0	0
3998	-3e-05	-3e-05	-5e-05	3e-05	4e-05	0	-1e-05	0	0
3999	-3e-05	-3e-05	-5e-05	3e-05	4e-05	0	-1e-05	0	0
4000	-3e-05	-3e-05	-5e-05	3e-05	4e-05	0	-1e-05	0	0
4001	-3e-05	-3e-05	-5e-05	3e-05	4e-05	0	-1e-05	0	0
4002	-3e-05	-3e-05	-5e-05	3e-05	4e-05	0	-1e-05	0	0
4003	-3e-05	-3e-05	-5e-05	3e-05	4e-05	0	-1e-05	0	0
4004	-3e-05	-3e-05	-5e-05	3e-05	4e-05	0	-1e-05	0	0
4005	-3e-05	-3e-05	-5e-05	3e-05	4e-05	0	-1e-05	0	0
4006	-3e-05	-3e-05	-5e-05	3e-05	4e-05	0	-1e-05	0	0
4007	-3e-05	-3e-05	-5e-05	3e-05	4e-05	0	-1e-05	0	0
4008	-3e-05	-3e-05	-5e-05	3e-05	4e-05	0	-1e-05	0	0
4009	-3e-05	-3e-05	-5e-05	3e-05	4e-05	0	-1e-05	0	0
4010	-3e-05	-3e-05	-5e-05	3e-05	4e-05	0	-1e-05	0	0
4011	-3e-05	-3e-05	-5e-05	3e-05	4e-05	0	-1e-05	0	0
4012	-3e-05	-3e-05	-5e-05	3e-05	4e-05	0	-1e-05	0	0
4013	-3e-05	-3e-05	-5e-05	3e-05	4e-05	0	-1e-05	0	0
4014	-3e-05	-3e-05	-5e-05	3e-05	4e-05	0	-1e-05	0	0
4015	-3e-05	-3e-05	-5e-05	3e-05	4e-05	0	-1e-05	0	0
4016	-3e-05	-3e-05	-5e-05	3e-05	4e-05	0	-1e-05	0	0
4017	-3e-05	-3e-05	-5e-05	3e-05	4e-05	0	-1e-05	0	0
4018	-3e-05	-3e-05	-5e-05	3e-05	4e-05	0	-1e-05	0	0
4019	-1e-05	-1e-05	2e-05	-1e-05	-7e-05	-1e-05	-1e-05	-1e-05	0
4020	0	0	-2e-05	4e-05	3e-05	0	1e-05	-1e-05	0
4021	0	0	-2e-05	4e-05	3e-05	0	1e-05	-1e-05	0
4022	0	0	-2e-05	4e-05	3e-05	0	1e-05	-1e-05	0
4023	0	0	-2e-05	4e-05	3e-05	0	1e-05	-1e-05	0
4024	0	0	-2e-05	4e-05	3e-05	0	1e-05	-1e-05	0
4025	0	0	-2e-05	4e-05	3e-05	0	1e-05	-1e-05	0
4026	0	0	-2e-05	4e-05	3e-05	0	1e-05	-1e-05	0
4027	0	0	-2e-05	4e-05	3e-05	0	1e-05	-1e-05	0
4028	0	0	-2e-05	4e-05	3e-05	0	1e-05	-1e-05	0
4029	0	0	-2e-05	4e-05	3e-05	0	1e-05	-1e-05	0
4030	0	0	-2e-05	4e-05	3e-05	0	1e-05	-1e-05	0
4031	0	0	-2e-05	4e-05	3e-05	0	1e-05	-1e-05	0
4032	0	0	-2e-05	4e-05	3e-05	0	1e-05	-1e-05	0
4033	-1e-05	-1e-05	3e-05	-3e-05	-2e-05	2e-05	-1e-05	-1e-05	0
4034	0	5e-05	6e-05	-1e-05	-2e-05	-1e-05	-1e-05	0	0
4035	0	5e-05	6e-05	-1e-05	-2e-05	-1e-05	-1e-05	0	0
4036	0	5e-05	6e-05	-1e-05	-2e-05	-1e-05	-1e-05	0	0
4038	0	5e-05	6e-05	-1e-05	-2e-05	-1e-05	-1e-05	0	0
4039	0	5e-05	6e-05	-1e-05	-2e-05	-1e-05	-1e-05	0	0
4040	0	5e-05	6e-05	-1e-05	-2e-05	-1e-05	-1e-05	0	0
4041	0	5e-05	6e-05	-1e-05	-2e-05	-1e-05	-1e-05	0	0
4042	0	5e-05	6e-05	-1e-05	-2e-05	-1e-05	-1e-05	0	0
4043	0	5e-05	6e-05	-1e-05	-2e-05	-1e-05	-1e-05	0	0
4044	0	5e-05	6e-05	-1e-05	-2e-05	-1e-05	-1e-05	0	0
4045	0	5e-05	6e-05	-1e-05	-2e-05	-1e-05	-1e-05	0	0
4046	0	5e-05	6e-05	-1e-05	-2e-05	-1e-05	-1e-05	0	0
4047	0	5e-05	6e-05	-1e-05	-2e-05	-1e-05	-1e-05	0	0
4048	0	5e-05	6e-05	-1e-05	-2e-05	-1e-05	-1e-05	0	0
4049	0	5e-05	6e-05	-1e-05	-2e-05	-1e-05	-1e-05	0	0
4050	0	5e-05	6e-05	-1e-05	-2e-05	-1e-05	-1e-05	0	0
4051	0	5e-05	6e-05	-1e-05	-2e-05	-1e-05	-1e-05	0	0
4052	0	5e-05	6e-05	-1e-05	-2e-05	-1e-05	-1e-05	0	0
4053	0	5e-05	6e-05	-1e-05	-2e-05	-1e-05	-1e-05	0	0
4054	0	5e-05	6e-05	-1e-05	-2e-05	-1e-05	-1e-05	0	0
4055	0	5e-05	6e-05	-1e-05	-2e-05	-1e-05	-1e-05	0	0
4056	-1e-05	-5e-05	-7e-05	-8e-05	5e-05	0	-1e-05	-1e-05	0
4057	-1e-05	-5e-05	-7e-05	-8e-05	5e-05	0	-1e-05	-1e-05	0
4058	-1e-05	-5e-05	-7e-05	-8e-05	5e-05	0	-1e-05	-1e-05	0
4059	-1e-05	-5e-05	-7e-05	-8e-05	5e-05	0	-1e-05	-1e-05	0
4060	-1e-05	-5e-05	-7e-05	-8e-05	5e-05	0	-1e-05	-1e-05	0
4061	-1e-05	-5e-05	-7e-05	-8e-05	5e-05	0	-1e-05	-1e-05	0
4062	-1e-05	-5e-05	-7e-05	-8e-05	5e-05	0	-1e-05	-1e-05	0
4063	-1e-05	-5e-05	-7e-05	-8e-05	5e-05	0	-1e-05	-1e-05	0
4064	-1e-05	-5e-05	-7e-05	-8e-05	5e-05	0	-1e-05	-1e-05	0
4065	-1e-05	-5e-05	-7e-05	-8e-05	5e-05	0	-1e-05	-1e-05	0
4066	-1e-05	-5e-05	-7e-05	-8e-05	5e-05	0	-1e-05	-1e-05	0
4067	-1e-05	-5e-05	-7e-05	-8e-05	5e-05	0	-1e-05	-1e-05	0
4068	-1e-05	-5e-05	-7e-05	-8e-05	5e-05	0	-1e-05	-1e-05	0
4069	-1e-05	-5e-05	-7e-05	-8e-05	5e-05	0	-1e-05	-1e-05	0
4070	-1e-05	-5e-05	-7e-05	-8e-05	5e-05	0	-1e-05	-1e-05	0
4071	-1e-05	-5e-05	-7e-05	-8e-05	5e-05	0	-1e-05	-1e-05	0
4072	-1e-05	-5e-05	-7e-05	-8e-05	5e-05	0	-1e-05	-1e-05	0
4073	-1e-05	-5e-05	-7e-05	-8e-05	5e-05	0	-1e-05	-1e-05	0
4074	-1e-05	-5e-05	-7e-05	-8e-05	5e-05	0	-1e-05	-1e-05	0
4075	-1e-05	-5e-05	-7e-05	-8e-05	5e-05	0	-1e-05	-1e-05	0
4076	-1e-05	-5e-05	-7e-05	-8e-05	5e-05	0	-1e-05	-1e-05	0
4077	-1e-05	-5e-05	-7e-05	-8e-05	5e-05	0	-1e-05	-1e-05	0
4078	-1e-05	-5e-05	-7e-05	-8e-05	5e-05	0	-1e-05	-1e-05	0
4079	1e-05	0	-8e-05	-0.00011	-9e-05	3e-05	-2e-05	-1e-05	0
4080	-1e-05	0	2e-05	-2e-05	2e-05	0	-2e-05	-1e-05	0
4081	-1e-05	0	2e-05	-2e-05	2e-05	0	-2e-05	-1e-05	0
4082	-1e-05	0	2e-05	-2e-05	2e-05	0	-2e-05	-1e-05	0
4083	-1e-05	0	2e-05	-2e-05	2e-05	0	-2e-05	-1e-05	0
4084	-1e-05	0	2e-05	-2e-05	2e-05	0	-2e-05	-1e-05	0
4085	-1e-05	0	2e-05	-2e-05	2e-05	0	-2e-05	-1e-05	0
4086	-1e-05	0	2e-05	-2e-05	2e-05	0	-2e-05	-1e-05	0
4088	-1e-05	0	2e-05	-2e-05	2e-05	0	-2e-05	-1e-05	0
4089	-1e-05	0	2e-05	-2e-05	2e-05	0	-2e-05	-1e-05	0
4090	-1e-05	0	2e-05	-2e-05	2e-05	0	-2e-05	-1e-05	0
4091	-1e-05	0	2e-05	-2e-05	2e-05	0	-2e-05	-1e-05	0
4092	-1e-05	0	2e-05	-2e-05	2e-05	0	-2e-05	-1e-05	0
4093	0	-1e-05	1e-05	-8e-05	-9e-05	-5e-05	-2e-05	0	0
4094	-2e-05	-2e-05	-3e-05	2e-05	1e-05	-3e-05	-1e-05	0	0
4095	-2e-05	-2e-05	-3e-05	2e-05	1e-05	-3e-05	-1e-05	0	0
4096	-2e-05	-2e-05	-3e-05	2e-05	1e-05	-3e-05	-1e-05	0	0
4097	-2e-05	-2e-05	-3e-05	2e-05	1e-05	-3e-05	-1e-05	0	0
4098	-2e-05	-2e-05	-3e-05	2e-05	1e-05	-3e-05	-1e-05	0	0
4099	-2e-05	-2e-05	-3e-05	2e-05	1e-05	-3e-05	-1e-05	0	0
4100	-2e-05	-2e-05	-3e-05	2e-05	1e-05	-3e-05	-1e-05	0	0
4101	-2e-05	-2e-05	-3e-05	2e-05	1e-05	-3e-05	-1e-05	0	0
4102	-2e-05	-2e-05	-3e-05	2e-05	1e-05	-3e-05	-1e-05	0	0
4103	-2e-05	-2e-05	-3e-05	2e-05	1e-05	-3e-05	-1e-05	0	0
4104	-2e-05	-2e-05	-3e-05	2e-05	1e-05	-3e-05	-1e-05	0	0
4105	-2e-05	-2e-05	-3e-05	2e-05	1e-05	-3e-05	-1e-05	0	0
4106	-2e-05	-2e-05	-3e-05	2e-05	1e-05	-3e-05	-1e-05	0	0
4107	-2e-05	-2e-05	-3e-05	2e-05	1e-05	-3e-05	-1e-05	0	0
4108	-2e-05	-2e-05	-3e-05	2e-05	1e-05	-3e-05	-1e-05	0	0
4109	-2e-05	-2e-05	-3e-05	2e-05	1e-05	-3e-05	-1e-05	0	0
4110	-2e-05	-2e-05	-3e-05	2e-05	1e-05	-3e-05	-1e-05	0	0
4111	-2e-05	-2e-05	-3e-05	2e-05	1e-05	-3e-05	-1e-05	0	0
4112	-2e-05	-2e-05	-3e-05	2e-05	1e-05	-3e-05	-1e-05	0	0
4113	-2e-05	-2e-05	-3e-05	2e-05	1e-05	-3e-05	-1e-05	0	0
4114	-2e-05	-2e-05	-3e-05	2e-05	1e-05	-3e-05	-1e-05	0	0
4115	-2e-05	-2e-05	-3e-05	2e-05	1e-05	-3e-05	-1e-05	0	0
4116	-2e-05	-2e-05	-1e-05	0	-7e-05	-1e-05	-3e-05	-1e-05	0
4117	-2e-05	-2e-05	-1e-05	0	-7e-05	-1e-05	-3e-05	-1e-05	0
4118	-2e-05	-2e-05	-1e-05	0	-7e-05	-1e-05	-3e-05	-1e-05	0
4119	-2e-05	-2e-05	-1e-05	0	-7e-05	-1e-05	-3e-05	-1e-05	0
4120	-2e-05	-2e-05	-1e-05	0	-7e-05	-1e-05	-3e-05	-1e-05	0
4121	-2e-05	-2e-05	-1e-05	0	-7e-05	-1e-05	-3e-05	-1e-05	0
4122	-2e-05	-2e-05	-1e-05	0	-7e-05	-1e-05	-3e-05	-1e-05	0
4123	-2e-05	-2e-05	-1e-05	0	-7e-05	-1e-05	-3e-05	-1e-05	0
4124	-2e-05	-2e-05	-1e-05	0	-7e-05	-1e-05	-3e-05	-1e-05	0
4125	-2e-05	-2e-05	-1e-05	0	-7e-05	-1e-05	-3e-05	-1e-05	0
4126	-2e-05	-2e-05	-1e-05	0	-7e-05	-1e-05	-3e-05	-1e-05	0
4127	-2e-05	-2e-05	-1e-05	0	-7e-05	-1e-05	-3e-05	-1e-05	0
4128	-2e-05	-2e-05	-1e-05	0	-7e-05	-1e-05	-3e-05	-1e-05	0
4129	-2e-05	-2e-05	-1e-05	0	-7e-05	-1e-05	-3e-05	-1e-05	0
4130	-2e-05	-2e-05	-1e-05	0	-7e-05	-1e-05	-3e-05	-1e-05	0
4131	-2e-05	-2e-05	-1e-05	0	-7e-05	-1e-05	-3e-05	-1e-05	0
4132	-2e-05	-2e-05	-1e-05	0	-7e-05	-1e-05	-3e-05	-1e-05	0
4133	-2e-05	-2e-05	-1e-05	0	-7e-05	-1e-05	-3e-05	-1e-05	0
4134	-2e-05	-2e-05	-1e-05	0	-7e-05	-1e-05	-3e-05	-1e-05	0
4135	-2e-05	-2e-05	-1e-05	0	-7e-05	-1e-05	-3e-05	-1e-05	0
4136	-2e-05	-2e-05	-1e-05	0	-7e-05	-1e-05	-3e-05	-1e-05	0
4138	-2e-05	-2e-05	-1e-05	0	-7e-05	-1e-05	-3e-05	-1e-05	0
4139	-1e-05	0	2e-05	-3e-05	-5e-05	0	0	-1e-05	0
4140	0	1e-05	5e-05	1e-05	0.0001	-4e-05	2e-05	-2e-05	0
4141	0	1e-05	5e-05	1e-05	0.0001	-4e-05	2e-05	-2e-05	0
4142	0	1e-05	5e-05	1e-05	0.0001	-4e-05	2e-05	-2e-05	0
4143	0	1e-05	5e-05	1e-05	0.0001	-4e-05	2e-05	-2e-05	0
4144	0	1e-05	5e-05	1e-05	0.0001	-4e-05	2e-05	-2e-05	0
4145	0	1e-05	5e-05	1e-05	0.0001	-4e-05	2e-05	-2e-05	0
4146	0	1e-05	5e-05	1e-05	0.0001	-4e-05	2e-05	-2e-05	0
4147	0	1e-05	5e-05	1e-05	0.0001	-4e-05	2e-05	-2e-05	0
4148	0	1e-05	5e-05	1e-05	0.0001	-4e-05	2e-05	-2e-05	0
4149	0	1e-05	5e-05	1e-05	0.0001	-4e-05	2e-05	-2e-05	0
4150	0	1e-05	5e-05	1e-05	0.0001	-4e-05	2e-05	-2e-05	0
4151	0	1e-05	5e-05	1e-05	0.0001	-4e-05	2e-05	-2e-05	0
4152	0	1e-05	5e-05	1e-05	0.0001	-4e-05	2e-05	-2e-05	0
4153	0	-1e-05	-1e-05	6e-05	6e-05	0	-2e-05	-1e-05	0
4154	-2e-05	-4e-05	-0.0001	-3e-05	-7e-05	-2e-05	-1e-05	-1e-05	0
4155	-2e-05	-4e-05	-0.0001	-3e-05	-7e-05	-2e-05	-1e-05	-1e-05	0
4156	-2e-05	-4e-05	-0.0001	-3e-05	-7e-05	-2e-05	-1e-05	-1e-05	0
4157	-2e-05	-4e-05	-0.0001	-3e-05	-7e-05	-2e-05	-1e-05	-1e-05	0
4158	-2e-05	-4e-05	-0.0001	-3e-05	-7e-05	-2e-05	-1e-05	-1e-05	0
4159	-2e-05	-4e-05	-0.0001	-3e-05	-7e-05	-2e-05	-1e-05	-1e-05	0
4160	-2e-05	-4e-05	-0.0001	-3e-05	-7e-05	-2e-05	-1e-05	-1e-05	0
4161	-2e-05	-4e-05	-0.0001	-3e-05	-7e-05	-2e-05	-1e-05	-1e-05	0
4162	-2e-05	-4e-05	-0.0001	-3e-05	-7e-05	-2e-05	-1e-05	-1e-05	0
4163	-2e-05	-4e-05	-0.0001	-3e-05	-7e-05	-2e-05	-1e-05	-1e-05	0
4164	-2e-05	-4e-05	-0.0001	-3e-05	-7e-05	-2e-05	-1e-05	-1e-05	0
4165	-2e-05	-4e-05	-0.0001	-3e-05	-7e-05	-2e-05	-1e-05	-1e-05	0
4166	-2e-05	-4e-05	-0.0001	-3e-05	-7e-05	-2e-05	-1e-05	-1e-05	0
4167	-2e-05	-4e-05	-0.0001	-3e-05	-7e-05	-2e-05	-1e-05	-1e-05	0
4168	-2e-05	-4e-05	-0.0001	-3e-05	-7e-05	-2e-05	-1e-05	-1e-05	0
4169	-2e-05	-4e-05	-0.0001	-3e-05	-7e-05	-2e-05	-1e-05	-1e-05	0
4170	-2e-05	-4e-05	-0.0001	-3e-05	-7e-05	-2e-05	-1e-05	-1e-05	0
4171	-2e-05	-4e-05	-0.0001	-3e-05	-7e-05	-2e-05	-1e-05	-1e-05	0
4172	-2e-05	-4e-05	-0.0001	-3e-05	-7e-05	-2e-05	-1e-05	-1e-05	0
4173	-2e-05	-4e-05	-0.0001	-3e-05	-7e-05	-2e-05	-1e-05	-1e-05	0
4174	-2e-05	-4e-05	-0.0001	-3e-05	-7e-05	-2e-05	-1e-05	-1e-05	0
4175	-2e-05	-4e-05	-0.0001	-3e-05	-7e-05	-2e-05	-1e-05	-1e-05	0
4176	-3e-05	-4e-05	-3e-05	0	9e-05	1e-05	-1e-05	-1e-05	0
4177	0	2e-05	2e-05	-4e-05	-9e-05	1e-05	-1e-05	1e-05	0
4178	0	2e-05	2e-05	-4e-05	-9e-05	1e-05	-1e-05	1e-05	0
4179	0	2e-05	2e-05	-4e-05	-9e-05	1e-05	-1e-05	1e-05	0
4180	0	2e-05	2e-05	-4e-05	-9e-05	1e-05	-1e-05	1e-05	0
4181	0	2e-05	2e-05	-4e-05	-9e-05	1e-05	-1e-05	1e-05	0
4182	0	2e-05	2e-05	-4e-05	-9e-05	1e-05	-1e-05	1e-05	0
4183	0	2e-05	2e-05	-4e-05	-9e-05	1e-05	-1e-05	1e-05	0
4184	0	2e-05	2e-05	-4e-05	-9e-05	1e-05	-1e-05	1e-05	0
4185	0	2e-05	2e-05	-4e-05	-9e-05	1e-05	-1e-05	1e-05	0
4186	0	2e-05	2e-05	-4e-05	-9e-05	1e-05	-1e-05	1e-05	0
4188	0	2e-05	2e-05	-4e-05	-9e-05	1e-05	-1e-05	1e-05	0
4189	0	2e-05	2e-05	-4e-05	-9e-05	1e-05	-1e-05	1e-05	0
4190	0	2e-05	2e-05	-4e-05	-9e-05	1e-05	-1e-05	1e-05	0
4191	0	2e-05	2e-05	-4e-05	-9e-05	1e-05	-1e-05	1e-05	0
4192	0	2e-05	2e-05	-4e-05	-9e-05	1e-05	-1e-05	1e-05	0
4193	0	2e-05	2e-05	-4e-05	-9e-05	1e-05	-1e-05	1e-05	0
4194	0	2e-05	2e-05	-4e-05	-9e-05	1e-05	-1e-05	1e-05	0
4195	0	2e-05	2e-05	-4e-05	-9e-05	1e-05	-1e-05	1e-05	0
4196	0	2e-05	2e-05	-4e-05	-9e-05	1e-05	-1e-05	1e-05	0
4197	0	2e-05	2e-05	-4e-05	-9e-05	1e-05	-1e-05	1e-05	0
4198	0	2e-05	2e-05	-4e-05	-9e-05	1e-05	-1e-05	1e-05	0
4199	-2e-05	-1e-05	-5e-05	-4e-05	-7e-05	1e-05	-1e-05	-2e-05	0
4200	0	1e-05	5e-05	-3e-05	2e-05	-2e-05	-2e-05	0	0
4201	0	1e-05	5e-05	-3e-05	2e-05	-2e-05	-2e-05	0	0
4202	0	1e-05	5e-05	-3e-05	2e-05	-2e-05	-2e-05	0	0
4203	0	1e-05	5e-05	-3e-05	2e-05	-2e-05	-2e-05	0	0
4204	0	1e-05	5e-05	-3e-05	2e-05	-2e-05	-2e-05	0	0
4205	0	1e-05	5e-05	-3e-05	2e-05	-2e-05	-2e-05	0	0
4206	0	1e-05	5e-05	-3e-05	2e-05	-2e-05	-2e-05	0	0
4207	0	1e-05	5e-05	-3e-05	2e-05	-2e-05	-2e-05	0	0
4208	0	1e-05	5e-05	-3e-05	2e-05	-2e-05	-2e-05	0	0
4209	0	1e-05	5e-05	-3e-05	2e-05	-2e-05	-2e-05	0	0
4210	0	1e-05	5e-05	-3e-05	2e-05	-2e-05	-2e-05	0	0
4211	0	1e-05	5e-05	-3e-05	2e-05	-2e-05	-2e-05	0	0
4212	0	1e-05	5e-05	-3e-05	2e-05	-2e-05	-2e-05	0	0
4213	-1e-05	-3e-05	-4e-05	0.0001	0.00011	-2e-05	0	0	0
4214	-1e-05	-1e-05	3e-05	3e-05	2e-05	-1e-05	-1e-05	-1e-05	0
4215	-1e-05	-1e-05	3e-05	3e-05	2e-05	-1e-05	-1e-05	-1e-05	0
4216	-1e-05	-1e-05	3e-05	3e-05	2e-05	-1e-05	-1e-05	-1e-05	0
4217	-1e-05	-1e-05	3e-05	3e-05	2e-05	-1e-05	-1e-05	-1e-05	0
4218	-1e-05	-1e-05	3e-05	3e-05	2e-05	-1e-05	-1e-05	-1e-05	0
4219	-1e-05	-1e-05	3e-05	3e-05	2e-05	-1e-05	-1e-05	-1e-05	0
4220	-1e-05	-1e-05	3e-05	3e-05	2e-05	-1e-05	-1e-05	-1e-05	0
4221	-1e-05	-1e-05	3e-05	3e-05	2e-05	-1e-05	-1e-05	-1e-05	0
4222	-1e-05	-1e-05	3e-05	3e-05	2e-05	-1e-05	-1e-05	-1e-05	0
4223	-1e-05	-1e-05	3e-05	3e-05	2e-05	-1e-05	-1e-05	-1e-05	0
4224	-1e-05	-1e-05	3e-05	3e-05	2e-05	-1e-05	-1e-05	-1e-05	0
4225	-1e-05	-1e-05	3e-05	3e-05	2e-05	-1e-05	-1e-05	-1e-05	0
4226	-1e-05	-1e-05	3e-05	3e-05	2e-05	-1e-05	-1e-05	-1e-05	0
4227	-1e-05	-1e-05	3e-05	3e-05	2e-05	-1e-05	-1e-05	-1e-05	0
4228	-1e-05	-1e-05	3e-05	3e-05	2e-05	-1e-05	-1e-05	-1e-05	0
4229	-1e-05	-1e-05	3e-05	3e-05	2e-05	-1e-05	-1e-05	-1e-05	0
4230	-1e-05	-1e-05	3e-05	3e-05	2e-05	-1e-05	-1e-05	-1e-05	0
4231	-1e-05	-1e-05	3e-05	3e-05	2e-05	-1e-05	-1e-05	-1e-05	0
4232	-1e-05	-1e-05	3e-05	3e-05	2e-05	-1e-05	-1e-05	-1e-05	0
4233	-1e-05	-1e-05	3e-05	3e-05	2e-05	-1e-05	-1e-05	-1e-05	0
4234	-1e-05	-1e-05	3e-05	3e-05	2e-05	-1e-05	-1e-05	-1e-05	0
4235	-1e-05	-1e-05	3e-05	3e-05	2e-05	-1e-05	-1e-05	-1e-05	0
4236	-1e-05	0	0	-4e-05	-7e-05	-2e-05	0	-2e-05	0
4238	0	0	-1e-05	-0.0001	1e-05	-2e-05	-1e-05	0	0
4239	0	0	-1e-05	-0.0001	1e-05	-2e-05	-1e-05	0	0
4240	0	0	-1e-05	-0.0001	1e-05	-2e-05	-1e-05	0	0
4241	0	0	-1e-05	-0.0001	1e-05	-2e-05	-1e-05	0	0
4242	0	0	-1e-05	-0.0001	1e-05	-2e-05	-1e-05	0	0
4243	0	0	-1e-05	-0.0001	1e-05	-2e-05	-1e-05	0	0
4244	0	0	-1e-05	-0.0001	1e-05	-2e-05	-1e-05	0	0
4245	0	0	-1e-05	-0.0001	1e-05	-2e-05	-1e-05	0	0
4246	0	0	-1e-05	-0.0001	1e-05	-2e-05	-1e-05	0	0
4248	0	0	-1e-05	-0.0001	1e-05	-2e-05	-1e-05	0	0
4249	0	0	-1e-05	-0.0001	1e-05	-2e-05	-1e-05	0	0
4250	0	0	-1e-05	-0.0001	1e-05	-2e-05	-1e-05	0	0
4251	0	0	-1e-05	-0.0001	1e-05	-2e-05	-1e-05	0	0
4252	0	0	-1e-05	-0.0001	1e-05	-2e-05	-1e-05	0	0
4253	0	0	-1e-05	-0.0001	1e-05	-2e-05	-1e-05	0	0
4254	0	0	-1e-05	-0.0001	1e-05	-2e-05	-1e-05	0	0
4255	0	0	-1e-05	-0.0001	1e-05	-2e-05	-1e-05	0	0
4256	0	0	-1e-05	-0.0001	1e-05	-2e-05	-1e-05	0	0
4257	0	0	-1e-05	-0.0001	1e-05	-2e-05	-1e-05	0	0
4258	0	0	-1e-05	-0.0001	1e-05	-2e-05	-1e-05	0	0
4259	-1e-05	-3e-05	-2e-05	-3e-05	0.00012	1e-05	0	1e-05	0
4260	-2e-05	-2e-05	0	2e-05	-9e-05	0	-1e-05	-1e-05	0
4261	-2e-05	-2e-05	0	2e-05	-9e-05	0	-1e-05	-1e-05	0
4262	-2e-05	-2e-05	0	2e-05	-9e-05	0	-1e-05	-1e-05	0
4263	-2e-05	-2e-05	0	2e-05	-9e-05	0	-1e-05	-1e-05	0
4264	-2e-05	-2e-05	0	2e-05	-9e-05	0	-1e-05	-1e-05	0
4265	-2e-05	-2e-05	0	2e-05	-9e-05	0	-1e-05	-1e-05	0
4266	-2e-05	-2e-05	0	2e-05	-9e-05	0	-1e-05	-1e-05	0
4267	-2e-05	-2e-05	0	2e-05	-9e-05	0	-1e-05	-1e-05	0
4268	-2e-05	-2e-05	0	2e-05	-9e-05	0	-1e-05	-1e-05	0
4269	-2e-05	-2e-05	0	2e-05	-9e-05	0	-1e-05	-1e-05	0
4270	-2e-05	-2e-05	0	2e-05	-9e-05	0	-1e-05	-1e-05	0
4271	-2e-05	-2e-05	0	2e-05	-9e-05	0	-1e-05	-1e-05	0
4272	-2e-05	-2e-05	0	2e-05	-9e-05	0	-1e-05	-1e-05	0
4273	-1e-05	-2e-05	-2e-05	-1e-05	-5e-05	-4e-05	-4e-05	0	0
4274	-1e-05	1e-05	5e-05	0.00011	0.00011	-1e-05	-1e-05	-1e-05	0
4275	-1e-05	1e-05	5e-05	0.00011	0.00011	-1e-05	-1e-05	-1e-05	0
4276	-1e-05	1e-05	5e-05	0.00011	0.00011	-1e-05	-1e-05	-1e-05	0
4277	-1e-05	1e-05	5e-05	0.00011	0.00011	-1e-05	-1e-05	-1e-05	0
4278	-1e-05	1e-05	5e-05	0.00011	0.00011	-1e-05	-1e-05	-1e-05	0
4279	-1e-05	1e-05	5e-05	0.00011	0.00011	-1e-05	-1e-05	-1e-05	0
4280	-1e-05	1e-05	5e-05	0.00011	0.00011	-1e-05	-1e-05	-1e-05	0
4281	-1e-05	1e-05	5e-05	0.00011	0.00011	-1e-05	-1e-05	-1e-05	0
4282	-1e-05	1e-05	5e-05	0.00011	0.00011	-1e-05	-1e-05	-1e-05	0
4283	-1e-05	1e-05	5e-05	0.00011	0.00011	-1e-05	-1e-05	-1e-05	0
4284	-1e-05	1e-05	5e-05	0.00011	0.00011	-1e-05	-1e-05	-1e-05	0
4285	-1e-05	1e-05	5e-05	0.00011	0.00011	-1e-05	-1e-05	-1e-05	0
4287	-1e-05	1e-05	5e-05	0.00011	0.00011	-1e-05	-1e-05	-1e-05	0
4289	-1e-05	1e-05	5e-05	0.00011	0.00011	-1e-05	-1e-05	-1e-05	0
4290	-1e-05	1e-05	5e-05	0.00011	0.00011	-1e-05	-1e-05	-1e-05	0
4291	-1e-05	1e-05	5e-05	0.00011	0.00011	-1e-05	-1e-05	-1e-05	0
4292	-1e-05	1e-05	5e-05	0.00011	0.00011	-1e-05	-1e-05	-1e-05	0
4293	-1e-05	1e-05	5e-05	0.00011	0.00011	-1e-05	-1e-05	-1e-05	0
4294	-1e-05	1e-05	5e-05	0.00011	0.00011	-1e-05	-1e-05	-1e-05	0
4295	-1e-05	1e-05	5e-05	0.00011	0.00011	-1e-05	-1e-05	-1e-05	0
4296	0	2e-05	4e-05	-0.0001	-9e-05	1e-05	1e-05	0	0
4297	-3e-05	-2e-05	-6e-05	6e-05	2e-05	2e-05	-1e-05	-1e-05	0
4298	-3e-05	-2e-05	-6e-05	6e-05	2e-05	2e-05	-1e-05	-1e-05	0
4299	-3e-05	-2e-05	-6e-05	6e-05	2e-05	2e-05	-1e-05	-1e-05	0
4300	-3e-05	-2e-05	-6e-05	6e-05	2e-05	2e-05	-1e-05	-1e-05	0
4301	-3e-05	-2e-05	-6e-05	6e-05	2e-05	2e-05	-1e-05	-1e-05	0
4302	-3e-05	-2e-05	-6e-05	6e-05	2e-05	2e-05	-1e-05	-1e-05	0
4303	-3e-05	-2e-05	-6e-05	6e-05	2e-05	2e-05	-1e-05	-1e-05	0
4304	-3e-05	-2e-05	-6e-05	6e-05	2e-05	2e-05	-1e-05	-1e-05	0
4305	-3e-05	-2e-05	-6e-05	6e-05	2e-05	2e-05	-1e-05	-1e-05	0
4306	-3e-05	-2e-05	-6e-05	6e-05	2e-05	2e-05	-1e-05	-1e-05	0
4307	-3e-05	-2e-05	-6e-05	6e-05	2e-05	2e-05	-1e-05	-1e-05	0
4308	-3e-05	-2e-05	-6e-05	6e-05	2e-05	2e-05	-1e-05	-1e-05	0
4309	-3e-05	-2e-05	-6e-05	6e-05	2e-05	2e-05	-1e-05	-1e-05	0
4310	-3e-05	-2e-05	-6e-05	6e-05	2e-05	2e-05	-1e-05	-1e-05	0
4311	-3e-05	-2e-05	-6e-05	6e-05	2e-05	2e-05	-1e-05	-1e-05	0
4312	-3e-05	-2e-05	-6e-05	6e-05	2e-05	2e-05	-1e-05	-1e-05	0
4313	-3e-05	-2e-05	-6e-05	6e-05	2e-05	2e-05	-1e-05	-1e-05	0
4314	-3e-05	-2e-05	-6e-05	6e-05	2e-05	2e-05	-1e-05	-1e-05	0
4315	-3e-05	-2e-05	-6e-05	6e-05	2e-05	2e-05	-1e-05	-1e-05	0
4316	-3e-05	-2e-05	-6e-05	6e-05	2e-05	2e-05	-1e-05	-1e-05	0
4317	-3e-05	-2e-05	-6e-05	6e-05	2e-05	2e-05	-1e-05	-1e-05	0
4318	-3e-05	-2e-05	-6e-05	6e-05	2e-05	2e-05	-1e-05	-1e-05	0
4319	-1e-05	0	3e-05	-3e-05	3e-05	-4e-05	-1e-05	0	0
4320	1e-05	1e-05	1e-05	-4e-05	-4e-05	0	0	-1e-05	0
4321	1e-05	1e-05	1e-05	-4e-05	-4e-05	0	0	-1e-05	0
4322	1e-05	1e-05	1e-05	-4e-05	-4e-05	0	0	-1e-05	0
4323	1e-05	1e-05	1e-05	-4e-05	-4e-05	0	0	-1e-05	0
4324	1e-05	1e-05	1e-05	-4e-05	-4e-05	0	0	-1e-05	0
4325	1e-05	1e-05	1e-05	-4e-05	-4e-05	0	0	-1e-05	0
4326	1e-05	1e-05	1e-05	-4e-05	-4e-05	0	0	-1e-05	0
4327	1e-05	1e-05	1e-05	-4e-05	-4e-05	0	0	-1e-05	0
4328	1e-05	1e-05	1e-05	-4e-05	-4e-05	0	0	-1e-05	0
4329	1e-05	1e-05	1e-05	-4e-05	-4e-05	0	0	-1e-05	0
4330	1e-05	1e-05	1e-05	-4e-05	-4e-05	0	0	-1e-05	0
4331	1e-05	1e-05	1e-05	-4e-05	-4e-05	0	0	-1e-05	0
4332	1e-05	1e-05	1e-05	-4e-05	-4e-05	0	0	-1e-05	0
4333	-4e-05	-2e-05	-6e-05	2e-05	-6e-05	0	-2e-05	-2e-05	0
4334	-2e-05	-3e-05	-6e-05	-5e-05	-1e-05	-2e-05	-2e-05	0	0
4335	-2e-05	-3e-05	-6e-05	-5e-05	-1e-05	-2e-05	-2e-05	0	0
4336	-2e-05	-3e-05	-6e-05	-5e-05	-1e-05	-2e-05	-2e-05	0	0
4338	-2e-05	-3e-05	-6e-05	-5e-05	-1e-05	-2e-05	-2e-05	0	0
4339	-2e-05	-3e-05	-6e-05	-5e-05	-1e-05	-2e-05	-2e-05	0	0
4340	-2e-05	-3e-05	-6e-05	-5e-05	-1e-05	-2e-05	-2e-05	0	0
4341	-2e-05	-3e-05	-6e-05	-5e-05	-1e-05	-2e-05	-2e-05	0	0
4342	-2e-05	-3e-05	-6e-05	-5e-05	-1e-05	-2e-05	-2e-05	0	0
4344	-2e-05	-3e-05	-6e-05	-5e-05	-1e-05	-2e-05	-2e-05	0	0
4345	-2e-05	-3e-05	-6e-05	-5e-05	-1e-05	-2e-05	-2e-05	0	0
4346	-2e-05	-3e-05	-6e-05	-5e-05	-1e-05	-2e-05	-2e-05	0	0
4347	-2e-05	-3e-05	-6e-05	-5e-05	-1e-05	-2e-05	-2e-05	0	0
4348	-2e-05	-3e-05	-6e-05	-5e-05	-1e-05	-2e-05	-2e-05	0	0
4349	-2e-05	-3e-05	-6e-05	-5e-05	-1e-05	-2e-05	-2e-05	0	0
4350	-2e-05	-3e-05	-6e-05	-5e-05	-1e-05	-2e-05	-2e-05	0	0
4351	-2e-05	-3e-05	-6e-05	-5e-05	-1e-05	-2e-05	-2e-05	0	0
4352	-2e-05	-3e-05	-6e-05	-5e-05	-1e-05	-2e-05	-2e-05	0	0
4353	-2e-05	-3e-05	-6e-05	-5e-05	-1e-05	-2e-05	-2e-05	0	0
4354	-2e-05	-3e-05	-6e-05	-5e-05	-1e-05	-2e-05	-2e-05	0	0
4355	-2e-05	-3e-05	-6e-05	-5e-05	-1e-05	-2e-05	-2e-05	0	0
4356	0	1e-05	4e-05	0	0	0	-1e-05	-1e-05	0
4357	0	1e-05	4e-05	0	0	0	-1e-05	-1e-05	0
4358	0	1e-05	4e-05	0	0	0	-1e-05	-1e-05	0
4359	0	1e-05	4e-05	0	0	0	-1e-05	-1e-05	0
4360	0	1e-05	4e-05	0	0	0	-1e-05	-1e-05	0
4361	0	1e-05	4e-05	0	0	0	-1e-05	-1e-05	0
4362	0	1e-05	4e-05	0	0	0	-1e-05	-1e-05	0
4363	0	1e-05	4e-05	0	0	0	-1e-05	-1e-05	0
4364	0	1e-05	4e-05	0	0	0	-1e-05	-1e-05	0
4365	0	1e-05	4e-05	0	0	0	-1e-05	-1e-05	0
4366	0	1e-05	4e-05	0	0	0	-1e-05	-1e-05	0
4367	0	1e-05	4e-05	0	0	0	-1e-05	-1e-05	0
4368	0	1e-05	4e-05	0	0	0	-1e-05	-1e-05	0
4369	0	1e-05	4e-05	0	0	0	-1e-05	-1e-05	0
4370	0	1e-05	4e-05	0	0	0	-1e-05	-1e-05	0
4371	0	1e-05	4e-05	0	0	0	-1e-05	-1e-05	0
4372	0	1e-05	4e-05	0	0	0	-1e-05	-1e-05	0
4373	0	1e-05	4e-05	0	0	0	-1e-05	-1e-05	0
4374	0	1e-05	4e-05	0	0	0	-1e-05	-1e-05	0
4375	0	1e-05	4e-05	0	0	0	-1e-05	-1e-05	0
4376	0	1e-05	4e-05	0	0	0	-1e-05	-1e-05	0
4377	0	1e-05	4e-05	0	0	0	-1e-05	-1e-05	0
4378	0	1e-05	4e-05	0	0	0	-1e-05	-1e-05	0
4379	-2e-05	-5e-05	-0.0001	-6e-05	-3e-05	-1e-05	-1e-05	-1e-05	0
4380	0	-1e-05	-2e-05	-3e-05	1e-05	-1e-05	1e-05	0	0
4381	0	-1e-05	-2e-05	-3e-05	1e-05	-1e-05	1e-05	0	0
4382	0	-1e-05	-2e-05	-3e-05	1e-05	-1e-05	1e-05	0	0
4383	0	-1e-05	-2e-05	-3e-05	1e-05	-1e-05	1e-05	0	0
4384	0	-1e-05	-2e-05	-3e-05	1e-05	-1e-05	1e-05	0	0
4385	0	-1e-05	-2e-05	-3e-05	1e-05	-1e-05	1e-05	0	0
4386	0	-1e-05	-2e-05	-3e-05	1e-05	-1e-05	1e-05	0	0
4388	0	-1e-05	-2e-05	-3e-05	1e-05	-1e-05	1e-05	0	0
4389	0	-1e-05	-2e-05	-3e-05	1e-05	-1e-05	1e-05	0	0
4390	0	-1e-05	-2e-05	-3e-05	1e-05	-1e-05	1e-05	0	0
4391	0	-1e-05	-2e-05	-3e-05	1e-05	-1e-05	1e-05	0	0
4392	0	-1e-05	-2e-05	-3e-05	1e-05	-1e-05	1e-05	0	0
4393	-1e-05	-2e-05	0	7e-05	3e-05	0	-1e-05	-2e-05	0
4394	0	1e-05	4e-05	-5e-05	-0.00012	0	-2e-05	-3e-05	0
4395	0	1e-05	4e-05	-5e-05	-0.00012	0	-2e-05	-3e-05	0
4396	0	1e-05	4e-05	-5e-05	-0.00012	0	-2e-05	-3e-05	0
4397	0	1e-05	4e-05	-5e-05	-0.00012	0	-2e-05	-3e-05	0
4398	0	1e-05	4e-05	-5e-05	-0.00012	0	-2e-05	-3e-05	0
4399	0	1e-05	4e-05	-5e-05	-0.00012	0	-2e-05	-3e-05	0
4400	0	1e-05	4e-05	-5e-05	-0.00012	0	-2e-05	-3e-05	0
4401	0	1e-05	4e-05	-5e-05	-0.00012	0	-2e-05	-3e-05	0
4402	0	1e-05	4e-05	-5e-05	-0.00012	0	-2e-05	-3e-05	0
4403	0	1e-05	4e-05	-5e-05	-0.00012	0	-2e-05	-3e-05	0
4404	0	1e-05	4e-05	-5e-05	-0.00012	0	-2e-05	-3e-05	0
4405	0	1e-05	4e-05	-5e-05	-0.00012	0	-2e-05	-3e-05	0
4406	0	1e-05	4e-05	-5e-05	-0.00012	0	-2e-05	-3e-05	0
4407	0	1e-05	4e-05	-5e-05	-0.00012	0	-2e-05	-3e-05	0
4408	0	1e-05	4e-05	-5e-05	-0.00012	0	-2e-05	-3e-05	0
4409	0	1e-05	4e-05	-5e-05	-0.00012	0	-2e-05	-3e-05	0
4410	0	1e-05	4e-05	-5e-05	-0.00012	0	-2e-05	-3e-05	0
4411	0	1e-05	4e-05	-5e-05	-0.00012	0	-2e-05	-3e-05	0
4412	0	1e-05	4e-05	-5e-05	-0.00012	0	-2e-05	-3e-05	0
4413	0	1e-05	4e-05	-5e-05	-0.00012	0	-2e-05	-3e-05	0
4414	0	1e-05	4e-05	-5e-05	-0.00012	0	-2e-05	-3e-05	0
4415	0	1e-05	4e-05	-5e-05	-0.00012	0	-2e-05	-3e-05	0
4416	-2e-05	-1e-05	-2e-05	-8e-05	-0.00018	-6e-05	-2e-05	-2e-05	0
4417	-2e-05	-2e-05	-7e-05	-2e-05	3e-05	0	-1e-05	0	0
4418	-2e-05	-2e-05	-7e-05	-2e-05	3e-05	0	-1e-05	0	0
4419	-2e-05	-2e-05	-7e-05	-2e-05	3e-05	0	-1e-05	0	0
4420	-2e-05	-2e-05	-7e-05	-2e-05	3e-05	0	-1e-05	0	0
4421	-2e-05	-2e-05	-7e-05	-2e-05	3e-05	0	-1e-05	0	0
4422	-2e-05	-2e-05	-7e-05	-2e-05	3e-05	0	-1e-05	0	0
4423	-2e-05	-2e-05	-7e-05	-2e-05	3e-05	0	-1e-05	0	0
4424	-2e-05	-2e-05	-7e-05	-2e-05	3e-05	0	-1e-05	0	0
4425	-2e-05	-2e-05	-7e-05	-2e-05	3e-05	0	-1e-05	0	0
4426	-2e-05	-2e-05	-7e-05	-2e-05	3e-05	0	-1e-05	0	0
4427	-2e-05	-2e-05	-7e-05	-2e-05	3e-05	0	-1e-05	0	0
4428	-2e-05	-2e-05	-7e-05	-2e-05	3e-05	0	-1e-05	0	0
4429	-2e-05	-2e-05	-7e-05	-2e-05	3e-05	0	-1e-05	0	0
4430	-2e-05	-2e-05	-7e-05	-2e-05	3e-05	0	-1e-05	0	0
4431	-2e-05	-2e-05	-7e-05	-2e-05	3e-05	0	-1e-05	0	0
4432	-2e-05	-2e-05	-7e-05	-2e-05	3e-05	0	-1e-05	0	0
4433	-2e-05	-2e-05	-7e-05	-2e-05	3e-05	0	-1e-05	0	0
4434	-2e-05	-2e-05	-7e-05	-2e-05	3e-05	0	-1e-05	0	0
4435	-2e-05	-2e-05	-7e-05	-2e-05	3e-05	0	-1e-05	0	0
4436	-2e-05	-2e-05	-7e-05	-2e-05	3e-05	0	-1e-05	0	0
4439	-2e-05	-3e-05	-3e-05	-1e-05	7e-05	-3e-05	-3e-05	-2e-05	0
4440	-2e-05	-9e-05	-0.0001	0.00017	-5e-05	-3e-05	-2e-05	-2e-05	0
4441	-2e-05	-9e-05	-0.0001	0.00017	-5e-05	-3e-05	-2e-05	-2e-05	0
4442	-2e-05	-9e-05	-0.0001	0.00017	-5e-05	-3e-05	-2e-05	-2e-05	0
4443	-2e-05	-9e-05	-0.0001	0.00017	-5e-05	-3e-05	-2e-05	-2e-05	0
4444	-2e-05	-9e-05	-0.0001	0.00017	-5e-05	-3e-05	-2e-05	-2e-05	0
4445	-2e-05	-9e-05	-0.0001	0.00017	-5e-05	-3e-05	-2e-05	-2e-05	0
4446	-2e-05	-9e-05	-0.0001	0.00017	-5e-05	-3e-05	-2e-05	-2e-05	0
4447	-2e-05	-9e-05	-0.0001	0.00017	-5e-05	-3e-05	-2e-05	-2e-05	0
4448	-2e-05	-9e-05	-0.0001	0.00017	-5e-05	-3e-05	-2e-05	-2e-05	0
4449	-2e-05	-9e-05	-0.0001	0.00017	-5e-05	-3e-05	-2e-05	-2e-05	0
4450	-2e-05	-9e-05	-0.0001	0.00017	-5e-05	-3e-05	-2e-05	-2e-05	0
4451	-2e-05	-9e-05	-0.0001	0.00017	-5e-05	-3e-05	-2e-05	-2e-05	0
4452	-2e-05	-9e-05	-0.0001	0.00017	-5e-05	-3e-05	-2e-05	-2e-05	0
4453	-2e-05	0	2e-05	-6e-05	-3e-05	-4e-05	-2e-05	-1e-05	0
4454	-2e-05	0	2e-05	-6e-05	-3e-05	-4e-05	-2e-05	-1e-05	0
4455	-2e-05	0	2e-05	-6e-05	-3e-05	-4e-05	-2e-05	-1e-05	0
4456	-2e-05	0	2e-05	-6e-05	-3e-05	-4e-05	-2e-05	-1e-05	0
4457	-2e-05	0	2e-05	-6e-05	-3e-05	-4e-05	-2e-05	-1e-05	0
4458	-2e-05	0	2e-05	-6e-05	-3e-05	-4e-05	-2e-05	-1e-05	0
4459	-2e-05	0	2e-05	-6e-05	-3e-05	-4e-05	-2e-05	-1e-05	0
4460	-2e-05	0	2e-05	-6e-05	-3e-05	-4e-05	-2e-05	-1e-05	0
4461	-1e-05	3e-05	2e-05	-6e-05	-2e-05	0	0	-1e-05	0
4462	-1e-05	3e-05	2e-05	-6e-05	-2e-05	0	0	-1e-05	0
4463	-1e-05	3e-05	2e-05	-6e-05	-2e-05	0	0	-1e-05	0
4464	-1e-05	3e-05	2e-05	-6e-05	-2e-05	0	0	-1e-05	0
4465	-1e-05	3e-05	2e-05	-6e-05	-2e-05	0	0	-1e-05	0
4466	-1e-05	3e-05	2e-05	-6e-05	-2e-05	0	0	-1e-05	0
4467	-1e-05	3e-05	2e-05	-6e-05	-2e-05	0	0	-1e-05	0
4468	-1e-05	3e-05	2e-05	-6e-05	-2e-05	0	0	-1e-05	0
4469	-1e-05	3e-05	2e-05	-6e-05	-2e-05	0	0	-1e-05	0
4470	-1e-05	3e-05	2e-05	-6e-05	-2e-05	0	0	-1e-05	0
4471	-1e-05	3e-05	2e-05	-6e-05	-2e-05	0	0	-1e-05	0
4472	-1e-05	3e-05	2e-05	-6e-05	-2e-05	0	0	-1e-05	0
4473	-1e-05	3e-05	2e-05	-6e-05	-2e-05	0	0	-1e-05	0
4474	-1e-05	3e-05	2e-05	-6e-05	-2e-05	0	0	-1e-05	0
4475	-1e-05	3e-05	2e-05	-6e-05	-2e-05	0	0	-1e-05	0
4476	-2e-05	-3e-05	-3e-05	-1e-05	-1e-05	0	0	0	0
4477	-2e-05	-3e-05	-3e-05	-1e-05	-1e-05	0	0	0	0
4478	-2e-05	-3e-05	-3e-05	-1e-05	-1e-05	0	0	0	0
4479	-2e-05	-3e-05	-3e-05	-1e-05	-1e-05	0	0	0	0
4480	-2e-05	-3e-05	-3e-05	-1e-05	-1e-05	0	0	0	0
4481	-2e-05	-3e-05	-3e-05	-1e-05	-1e-05	0	0	0	0
4482	-2e-05	-3e-05	-3e-05	-1e-05	-1e-05	0	0	0	0
4483	-2e-05	-3e-05	-3e-05	-1e-05	-1e-05	0	0	0	0
4484	-2e-05	-3e-05	-3e-05	-1e-05	-1e-05	0	0	0	0
4485	-2e-05	-3e-05	-3e-05	-1e-05	-1e-05	0	0	0	0
4487	-2e-05	-3e-05	-3e-05	-1e-05	-1e-05	0	0	0	0
4489	-2e-05	-3e-05	-3e-05	-1e-05	-1e-05	0	0	0	0
4490	-2e-05	-3e-05	-3e-05	-1e-05	-1e-05	0	0	0	0
4491	-2e-05	-3e-05	-3e-05	-1e-05	-1e-05	0	0	0	0
4492	-2e-05	-3e-05	-3e-05	-1e-05	-1e-05	0	0	0	0
4493	-2e-05	-3e-05	-3e-05	-1e-05	-1e-05	0	0	0	0
4494	-2e-05	-3e-05	-3e-05	-1e-05	-1e-05	0	0	0	0
4495	-2e-05	-3e-05	-3e-05	-1e-05	-1e-05	0	0	0	0
4496	-2e-05	-3e-05	-3e-05	-1e-05	-1e-05	0	0	0	0
4497	-2e-05	-3e-05	-3e-05	-1e-05	-1e-05	0	0	0	0
4498	-2e-05	-3e-05	-3e-05	-1e-05	-1e-05	0	0	0	0
4499	-2e-05	-3e-05	-3e-05	-1e-05	-1e-05	0	0	0	0
4500	0	-3e-05	-1e-05	-2e-05	5e-05	-1e-05	-1e-05	-2e-05	0
4501	0	-3e-05	-1e-05	-2e-05	5e-05	-1e-05	-1e-05	-2e-05	0
4502	0	-3e-05	-1e-05	-2e-05	5e-05	-1e-05	-1e-05	-2e-05	0
4503	0	-3e-05	-1e-05	-2e-05	5e-05	-1e-05	-1e-05	-2e-05	0
4504	0	-3e-05	-1e-05	-2e-05	5e-05	-1e-05	-1e-05	-2e-05	0
4505	0	-3e-05	-1e-05	-2e-05	5e-05	-1e-05	-1e-05	-2e-05	0
4506	0	-3e-05	-1e-05	-2e-05	5e-05	-1e-05	-1e-05	-2e-05	0
4507	0	-3e-05	-1e-05	-2e-05	5e-05	-1e-05	-1e-05	-2e-05	0
4508	0	-3e-05	-1e-05	-2e-05	5e-05	-1e-05	-1e-05	-2e-05	0
4509	0	-3e-05	-1e-05	-2e-05	5e-05	-1e-05	-1e-05	-2e-05	0
4510	0	-3e-05	-1e-05	-2e-05	5e-05	-1e-05	-1e-05	-2e-05	0
4511	0	-3e-05	-1e-05	-2e-05	5e-05	-1e-05	-1e-05	-2e-05	0
4512	0	-3e-05	-1e-05	-2e-05	5e-05	-1e-05	-1e-05	-2e-05	0
4513	-2e-05	-1e-05	-1e-05	7e-05	9e-05	-1e-05	-1e-05	-1e-05	0
4514	-2e-05	-1e-05	-1e-05	7e-05	9e-05	-1e-05	-1e-05	-1e-05	0
4515	-2e-05	-1e-05	-1e-05	7e-05	9e-05	-1e-05	-1e-05	-1e-05	0
4516	-2e-05	-1e-05	-1e-05	7e-05	9e-05	-1e-05	-1e-05	-1e-05	0
4517	-2e-05	-1e-05	-1e-05	7e-05	9e-05	-1e-05	-1e-05	-1e-05	0
4518	-2e-05	-1e-05	-1e-05	7e-05	9e-05	-1e-05	-1e-05	-1e-05	0
4519	-2e-05	-1e-05	-1e-05	7e-05	9e-05	-1e-05	-1e-05	-1e-05	0
4520	-2e-05	-1e-05	-1e-05	7e-05	9e-05	-1e-05	-1e-05	-1e-05	0
4521	0	-2e-05	-7e-05	-0.00015	-6e-05	-1e-05	-1e-05	-1e-05	0
4522	0	-2e-05	-7e-05	-0.00015	-6e-05	-1e-05	-1e-05	-1e-05	0
4523	0	-2e-05	-7e-05	-0.00015	-6e-05	-1e-05	-1e-05	-1e-05	0
4524	0	-2e-05	-7e-05	-0.00015	-6e-05	-1e-05	-1e-05	-1e-05	0
4525	0	-2e-05	-7e-05	-0.00015	-6e-05	-1e-05	-1e-05	-1e-05	0
4526	0	-2e-05	-7e-05	-0.00015	-6e-05	-1e-05	-1e-05	-1e-05	0
4527	0	-2e-05	-7e-05	-0.00015	-6e-05	-1e-05	-1e-05	-1e-05	0
4528	0	-2e-05	-7e-05	-0.00015	-6e-05	-1e-05	-1e-05	-1e-05	0
4529	0	-2e-05	-7e-05	-0.00015	-6e-05	-1e-05	-1e-05	-1e-05	0
4530	0	-2e-05	-7e-05	-0.00015	-6e-05	-1e-05	-1e-05	-1e-05	0
4531	0	-2e-05	-7e-05	-0.00015	-6e-05	-1e-05	-1e-05	-1e-05	0
4532	0	-2e-05	-7e-05	-0.00015	-6e-05	-1e-05	-1e-05	-1e-05	0
4533	0	-2e-05	-7e-05	-0.00015	-6e-05	-1e-05	-1e-05	-1e-05	0
4534	0	-2e-05	-7e-05	-0.00015	-6e-05	-1e-05	-1e-05	-1e-05	0
4535	0	-2e-05	-7e-05	-0.00015	-6e-05	-1e-05	-1e-05	-1e-05	0
4536	0	-2e-05	-7e-05	-0.00015	-6e-05	-1e-05	-1e-05	-1e-05	0
4538	0	4e-05	4e-05	-3e-05	-2e-05	0	-2e-05	-1e-05	0
4539	0	4e-05	4e-05	-3e-05	-2e-05	0	-2e-05	-1e-05	0
4540	0	4e-05	4e-05	-3e-05	-2e-05	0	-2e-05	-1e-05	0
4541	0	4e-05	4e-05	-3e-05	-2e-05	0	-2e-05	-1e-05	0
4542	0	4e-05	4e-05	-3e-05	-2e-05	0	-2e-05	-1e-05	0
4543	0	4e-05	4e-05	-3e-05	-2e-05	0	-2e-05	-1e-05	0
4544	0	4e-05	4e-05	-3e-05	-2e-05	0	-2e-05	-1e-05	0
4545	0	4e-05	4e-05	-3e-05	-2e-05	0	-2e-05	-1e-05	0
4546	0	4e-05	4e-05	-3e-05	-2e-05	0	-2e-05	-1e-05	0
4547	0	4e-05	4e-05	-3e-05	-2e-05	0	-2e-05	-1e-05	0
4548	0	4e-05	4e-05	-3e-05	-2e-05	0	-2e-05	-1e-05	0
4549	0	4e-05	4e-05	-3e-05	-2e-05	0	-2e-05	-1e-05	0
4550	0	4e-05	4e-05	-3e-05	-2e-05	0	-2e-05	-1e-05	0
4551	0	4e-05	4e-05	-3e-05	-2e-05	0	-2e-05	-1e-05	0
4552	0	4e-05	4e-05	-3e-05	-2e-05	0	-2e-05	-1e-05	0
4553	0	4e-05	4e-05	-3e-05	-2e-05	0	-2e-05	-1e-05	0
4554	0	4e-05	4e-05	-3e-05	-2e-05	0	-2e-05	-1e-05	0
4555	0	4e-05	4e-05	-3e-05	-2e-05	0	-2e-05	-1e-05	0
4556	0	4e-05	4e-05	-3e-05	-2e-05	0	-2e-05	-1e-05	0
4557	0	4e-05	4e-05	-3e-05	-2e-05	0	-2e-05	-1e-05	0
4558	0	4e-05	4e-05	-3e-05	-2e-05	0	-2e-05	-1e-05	0
4559	0	4e-05	4e-05	-3e-05	-2e-05	0	-2e-05	-1e-05	0
4560	0	-2e-05	-5e-05	-6e-05	-8e-05	-3e-05	-1e-05	-3e-05	0
4561	0	-2e-05	-5e-05	-6e-05	-8e-05	-3e-05	-1e-05	-3e-05	0
4562	0	-2e-05	-5e-05	-6e-05	-8e-05	-3e-05	-1e-05	-3e-05	0
4563	0	-2e-05	-5e-05	-6e-05	-8e-05	-3e-05	-1e-05	-3e-05	0
4564	0	-2e-05	-5e-05	-6e-05	-8e-05	-3e-05	-1e-05	-3e-05	0
4565	0	-2e-05	-5e-05	-6e-05	-8e-05	-3e-05	-1e-05	-3e-05	0
4566	0	-2e-05	-5e-05	-6e-05	-8e-05	-3e-05	-1e-05	-3e-05	0
4567	0	-2e-05	-5e-05	-6e-05	-8e-05	-3e-05	-1e-05	-3e-05	0
4568	0	-2e-05	-5e-05	-6e-05	-8e-05	-3e-05	-1e-05	-3e-05	0
4569	0	-2e-05	-5e-05	-6e-05	-8e-05	-3e-05	-1e-05	-3e-05	0
4570	0	-2e-05	-5e-05	-6e-05	-8e-05	-3e-05	-1e-05	-3e-05	0
4571	0	-2e-05	-5e-05	-6e-05	-8e-05	-3e-05	-1e-05	-3e-05	0
4572	0	-2e-05	-5e-05	-6e-05	-8e-05	-3e-05	-1e-05	-3e-05	0
4573	1e-05	0	2e-05	-0.00017	-8e-05	-2e-05	0	0	0
4574	1e-05	0	2e-05	-0.00017	-8e-05	-2e-05	0	0	0
4575	1e-05	0	2e-05	-0.00017	-8e-05	-2e-05	0	0	0
4576	1e-05	0	2e-05	-0.00017	-8e-05	-2e-05	0	0	0
4577	1e-05	0	2e-05	-0.00017	-8e-05	-2e-05	0	0	0
4578	1e-05	0	2e-05	-0.00017	-8e-05	-2e-05	0	0	0
4579	1e-05	0	2e-05	-0.00017	-8e-05	-2e-05	0	0	0
4580	1e-05	0	2e-05	-0.00017	-8e-05	-2e-05	0	0	0
4581	0	1e-05	3e-05	3e-05	5e-05	-1e-05	-2e-05	-1e-05	0
4582	0	1e-05	3e-05	3e-05	5e-05	-1e-05	-2e-05	-1e-05	0
4583	0	1e-05	3e-05	3e-05	5e-05	-1e-05	-2e-05	-1e-05	0
4584	0	1e-05	3e-05	3e-05	5e-05	-1e-05	-2e-05	-1e-05	0
4585	0	1e-05	3e-05	3e-05	5e-05	-1e-05	-2e-05	-1e-05	0
4586	0	1e-05	3e-05	3e-05	5e-05	-1e-05	-2e-05	-1e-05	0
4588	0	1e-05	3e-05	3e-05	5e-05	-1e-05	-2e-05	-1e-05	0
4589	0	1e-05	3e-05	3e-05	5e-05	-1e-05	-2e-05	-1e-05	0
4590	0	1e-05	3e-05	3e-05	5e-05	-1e-05	-2e-05	-1e-05	0
4591	0	1e-05	3e-05	3e-05	5e-05	-1e-05	-2e-05	-1e-05	0
4592	0	1e-05	3e-05	3e-05	5e-05	-1e-05	-2e-05	-1e-05	0
4593	0	1e-05	3e-05	3e-05	5e-05	-1e-05	-2e-05	-1e-05	0
4594	0	1e-05	3e-05	3e-05	5e-05	-1e-05	-2e-05	-1e-05	0
4595	0	1e-05	3e-05	3e-05	5e-05	-1e-05	-2e-05	-1e-05	0
4596	0	-4e-05	-0.00014	-0.00017	-7e-05	-3e-05	-3e-05	-1e-05	0
4597	-2e-05	0	1e-05	3e-05	0.00011	1e-05	0	1e-05	0
4598	-2e-05	0	1e-05	3e-05	0.00011	1e-05	0	1e-05	0
4599	-2e-05	0	1e-05	3e-05	0.00011	1e-05	0	1e-05	0
4600	-2e-05	0	1e-05	3e-05	0.00011	1e-05	0	1e-05	0
4601	-2e-05	0	1e-05	3e-05	0.00011	1e-05	0	1e-05	0
4602	-2e-05	0	1e-05	3e-05	0.00011	1e-05	0	1e-05	0
4603	-2e-05	0	1e-05	3e-05	0.00011	1e-05	0	1e-05	0
4604	-2e-05	0	1e-05	3e-05	0.00011	1e-05	0	1e-05	0
4605	-2e-05	0	1e-05	3e-05	0.00011	1e-05	0	1e-05	0
4606	-2e-05	0	1e-05	3e-05	0.00011	1e-05	0	1e-05	0
4607	-2e-05	0	1e-05	3e-05	0.00011	1e-05	0	1e-05	0
4608	-2e-05	0	1e-05	3e-05	0.00011	1e-05	0	1e-05	0
4609	-2e-05	0	1e-05	3e-05	0.00011	1e-05	0	1e-05	0
4610	-2e-05	0	1e-05	3e-05	0.00011	1e-05	0	1e-05	0
4611	-2e-05	0	1e-05	3e-05	0.00011	1e-05	0	1e-05	0
4612	-2e-05	0	1e-05	3e-05	0.00011	1e-05	0	1e-05	0
4613	-2e-05	0	1e-05	3e-05	0.00011	1e-05	0	1e-05	0
4614	-2e-05	0	1e-05	3e-05	0.00011	1e-05	0	1e-05	0
4615	-2e-05	0	1e-05	3e-05	0.00011	1e-05	0	1e-05	0
4616	-2e-05	0	1e-05	3e-05	0.00011	1e-05	0	1e-05	0
4617	-2e-05	0	1e-05	3e-05	0.00011	1e-05	0	1e-05	0
4618	-2e-05	0	1e-05	3e-05	0.00011	1e-05	0	1e-05	0
4619	-2e-05	-1e-05	3e-05	8e-05	-9e-05	-2e-05	-1e-05	0	0
4620	-1e-05	3e-05	5e-05	-0.00011	-0.00018	-2e-05	-1e-05	-1e-05	0
4621	-1e-05	3e-05	5e-05	-0.00011	-0.00018	-2e-05	-1e-05	-1e-05	0
4622	-1e-05	3e-05	5e-05	-0.00011	-0.00018	-2e-05	-1e-05	-1e-05	0
4623	-1e-05	3e-05	5e-05	-0.00011	-0.00018	-2e-05	-1e-05	-1e-05	0
4624	-1e-05	3e-05	5e-05	-0.00011	-0.00018	-2e-05	-1e-05	-1e-05	0
4625	-1e-05	3e-05	5e-05	-0.00011	-0.00018	-2e-05	-1e-05	-1e-05	0
4626	-1e-05	3e-05	5e-05	-0.00011	-0.00018	-2e-05	-1e-05	-1e-05	0
4627	-1e-05	3e-05	5e-05	-0.00011	-0.00018	-2e-05	-1e-05	-1e-05	0
4628	-1e-05	3e-05	5e-05	-0.00011	-0.00018	-2e-05	-1e-05	-1e-05	0
4629	-1e-05	3e-05	5e-05	-0.00011	-0.00018	-2e-05	-1e-05	-1e-05	0
4630	-1e-05	3e-05	5e-05	-0.00011	-0.00018	-2e-05	-1e-05	-1e-05	0
4631	-1e-05	3e-05	5e-05	-0.00011	-0.00018	-2e-05	-1e-05	-1e-05	0
4632	-1e-05	3e-05	5e-05	-0.00011	-0.00018	-2e-05	-1e-05	-1e-05	0
4633	-1e-05	-3e-05	-2e-05	-1e-05	0.0001	-1e-05	-2e-05	-1e-05	0
4634	-1e-05	-3e-05	-2e-05	-1e-05	0.0001	-1e-05	-2e-05	-1e-05	0
4635	-1e-05	-3e-05	-2e-05	-1e-05	0.0001	-1e-05	-2e-05	-1e-05	0
4636	-1e-05	-3e-05	-2e-05	-1e-05	0.0001	-1e-05	-2e-05	-1e-05	0
4638	-1e-05	-3e-05	-2e-05	-1e-05	0.0001	-1e-05	-2e-05	-1e-05	0
4639	-1e-05	-3e-05	-2e-05	-1e-05	0.0001	-1e-05	-2e-05	-1e-05	0
4640	-1e-05	-3e-05	-2e-05	-1e-05	0.0001	-1e-05	-2e-05	-1e-05	0
4641	-1e-05	0	-1e-05	2e-05	-5e-05	-3e-05	0	1e-05	0
4642	-1e-05	0	-1e-05	2e-05	-5e-05	-3e-05	0	1e-05	0
4643	-1e-05	0	-1e-05	2e-05	-5e-05	-3e-05	0	1e-05	0
4644	-1e-05	0	-1e-05	2e-05	-5e-05	-3e-05	0	1e-05	0
4645	-1e-05	0	-1e-05	2e-05	-5e-05	-3e-05	0	1e-05	0
4646	-1e-05	0	-1e-05	2e-05	-5e-05	-3e-05	0	1e-05	0
4647	-1e-05	0	-1e-05	2e-05	-5e-05	-3e-05	0	1e-05	0
4648	-1e-05	0	-1e-05	2e-05	-5e-05	-3e-05	0	1e-05	0
4649	-1e-05	0	-1e-05	2e-05	-5e-05	-3e-05	0	1e-05	0
4650	-1e-05	0	-1e-05	2e-05	-5e-05	-3e-05	0	1e-05	0
4651	-1e-05	0	-1e-05	2e-05	-5e-05	-3e-05	0	1e-05	0
4652	-1e-05	0	-1e-05	2e-05	-5e-05	-3e-05	0	1e-05	0
4653	-1e-05	0	-1e-05	2e-05	-5e-05	-3e-05	0	1e-05	0
4654	-1e-05	0	-1e-05	2e-05	-5e-05	-3e-05	0	1e-05	0
4655	-1e-05	0	-1e-05	2e-05	-5e-05	-3e-05	0	1e-05	0
4656	-2e-05	-1e-05	1e-05	-3e-05	-6e-05	-4e-05	0	0	0
4657	-1e-05	-4e-05	-2e-05	-5e-05	0	1e-05	0	-2e-05	0
4658	-1e-05	-4e-05	-2e-05	-5e-05	0	1e-05	0	-2e-05	0
4659	-1e-05	-4e-05	-2e-05	-5e-05	0	1e-05	0	-2e-05	0
4660	-1e-05	-4e-05	-2e-05	-5e-05	0	1e-05	0	-2e-05	0
4661	-1e-05	-4e-05	-2e-05	-5e-05	0	1e-05	0	-2e-05	0
4662	-1e-05	-4e-05	-2e-05	-5e-05	0	1e-05	0	-2e-05	0
4663	-1e-05	-4e-05	-2e-05	-5e-05	0	1e-05	0	-2e-05	0
4664	-1e-05	-4e-05	-2e-05	-5e-05	0	1e-05	0	-2e-05	0
4665	-1e-05	-4e-05	-2e-05	-5e-05	0	1e-05	0	-2e-05	0
4666	-1e-05	-4e-05	-2e-05	-5e-05	0	1e-05	0	-2e-05	0
4667	-1e-05	-4e-05	-2e-05	-5e-05	0	1e-05	0	-2e-05	0
4668	-1e-05	-4e-05	-2e-05	-5e-05	0	1e-05	0	-2e-05	0
4669	-1e-05	-4e-05	-2e-05	-5e-05	0	1e-05	0	-2e-05	0
4670	-1e-05	-4e-05	-2e-05	-5e-05	0	1e-05	0	-2e-05	0
4671	-1e-05	-4e-05	-2e-05	-5e-05	0	1e-05	0	-2e-05	0
4672	-1e-05	-4e-05	-2e-05	-5e-05	0	1e-05	0	-2e-05	0
4673	-1e-05	-4e-05	-2e-05	-5e-05	0	1e-05	0	-2e-05	0
4674	-1e-05	-4e-05	-2e-05	-5e-05	0	1e-05	0	-2e-05	0
4675	-1e-05	-4e-05	-2e-05	-5e-05	0	1e-05	0	-2e-05	0
4676	-1e-05	-4e-05	-2e-05	-5e-05	0	1e-05	0	-2e-05	0
4677	-1e-05	-4e-05	-2e-05	-5e-05	0	1e-05	0	-2e-05	0
4678	-1e-05	-4e-05	-2e-05	-5e-05	0	1e-05	0	-2e-05	0
4679	-1e-05	-1e-05	-7e-05	-0.00012	-8e-05	1e-05	-1e-05	1e-05	0
4680	-3e-05	-3e-05	-7e-05	-2e-05	6e-05	-2e-05	-1e-05	-1e-05	0
4681	-3e-05	-3e-05	-7e-05	-2e-05	6e-05	-2e-05	-1e-05	-1e-05	0
4682	-3e-05	-3e-05	-7e-05	-2e-05	6e-05	-2e-05	-1e-05	-1e-05	0
4683	-3e-05	-3e-05	-7e-05	-2e-05	6e-05	-2e-05	-1e-05	-1e-05	0
4684	-3e-05	-3e-05	-7e-05	-2e-05	6e-05	-2e-05	-1e-05	-1e-05	0
4685	-3e-05	-3e-05	-7e-05	-2e-05	6e-05	-2e-05	-1e-05	-1e-05	0
4686	-3e-05	-3e-05	-7e-05	-2e-05	6e-05	-2e-05	-1e-05	-1e-05	0
4689	-3e-05	-3e-05	-7e-05	-2e-05	6e-05	-2e-05	-1e-05	-1e-05	0
4690	-3e-05	-3e-05	-7e-05	-2e-05	6e-05	-2e-05	-1e-05	-1e-05	0
4691	-3e-05	-3e-05	-7e-05	-2e-05	6e-05	-2e-05	-1e-05	-1e-05	0
4692	-3e-05	-3e-05	-7e-05	-2e-05	6e-05	-2e-05	-1e-05	-1e-05	0
4693	0	2e-05	0	5e-05	0.00014	1e-05	-1e-05	-3e-05	0
4694	0	2e-05	0	5e-05	0.00014	1e-05	-1e-05	-3e-05	0
4695	0	2e-05	0	5e-05	0.00014	1e-05	-1e-05	-3e-05	0
4696	0	2e-05	0	5e-05	0.00014	1e-05	-1e-05	-3e-05	0
4697	0	2e-05	0	5e-05	0.00014	1e-05	-1e-05	-3e-05	0
4698	0	2e-05	0	5e-05	0.00014	1e-05	-1e-05	-3e-05	0
4699	0	2e-05	0	5e-05	0.00014	1e-05	-1e-05	-3e-05	0
4700	0	2e-05	0	5e-05	0.00014	1e-05	-1e-05	-3e-05	0
4701	-2e-05	-5e-05	-5e-05	7e-05	-4e-05	-1e-05	-2e-05	-2e-05	0
4702	-2e-05	-5e-05	-5e-05	7e-05	-4e-05	-1e-05	-2e-05	-2e-05	0
4703	-2e-05	-5e-05	-5e-05	7e-05	-4e-05	-1e-05	-2e-05	-2e-05	0
4704	-2e-05	-5e-05	-5e-05	7e-05	-4e-05	-1e-05	-2e-05	-2e-05	0
4705	-2e-05	-5e-05	-5e-05	7e-05	-4e-05	-1e-05	-2e-05	-2e-05	0
4706	-2e-05	-5e-05	-5e-05	7e-05	-4e-05	-1e-05	-2e-05	-2e-05	0
4707	-2e-05	-5e-05	-5e-05	7e-05	-4e-05	-1e-05	-2e-05	-2e-05	0
4708	-2e-05	-5e-05	-5e-05	7e-05	-4e-05	-1e-05	-2e-05	-2e-05	0
4709	-2e-05	-5e-05	-5e-05	7e-05	-4e-05	-1e-05	-2e-05	-2e-05	0
4710	-2e-05	-5e-05	-5e-05	7e-05	-4e-05	-1e-05	-2e-05	-2e-05	0
4711	-2e-05	-5e-05	-5e-05	7e-05	-4e-05	-1e-05	-2e-05	-2e-05	0
4712	-2e-05	-5e-05	-5e-05	7e-05	-4e-05	-1e-05	-2e-05	-2e-05	0
4713	-2e-05	-5e-05	-5e-05	7e-05	-4e-05	-1e-05	-2e-05	-2e-05	0
4714	-2e-05	-5e-05	-5e-05	7e-05	-4e-05	-1e-05	-2e-05	-2e-05	0
4715	-2e-05	-5e-05	-5e-05	7e-05	-4e-05	-1e-05	-2e-05	-2e-05	0
4716	1e-05	0	-7e-05	-7e-05	-8e-05	-2e-05	-2e-05	-1e-05	0
4717	0	-1e-05	0	-3e-05	4e-05	4e-05	-1e-05	-2e-05	0
4718	0	-1e-05	0	-3e-05	4e-05	4e-05	-1e-05	-2e-05	0
4719	0	-1e-05	0	-3e-05	4e-05	4e-05	-1e-05	-2e-05	0
4720	0	-1e-05	0	-3e-05	4e-05	4e-05	-1e-05	-2e-05	0
4721	0	-1e-05	0	-3e-05	4e-05	4e-05	-1e-05	-2e-05	0
4722	0	-1e-05	0	-3e-05	4e-05	4e-05	-1e-05	-2e-05	0
4723	0	-1e-05	0	-3e-05	4e-05	4e-05	-1e-05	-2e-05	0
4724	0	-1e-05	0	-3e-05	4e-05	4e-05	-1e-05	-2e-05	0
4725	0	-1e-05	0	-3e-05	4e-05	4e-05	-1e-05	-2e-05	0
4726	0	-1e-05	0	-3e-05	4e-05	4e-05	-1e-05	-2e-05	0
4727	0	-1e-05	0	-3e-05	4e-05	4e-05	-1e-05	-2e-05	0
4728	0	-1e-05	0	-3e-05	4e-05	4e-05	-1e-05	-2e-05	0
4729	0	-1e-05	0	-3e-05	4e-05	4e-05	-1e-05	-2e-05	0
4730	0	-1e-05	0	-3e-05	4e-05	4e-05	-1e-05	-2e-05	0
4731	0	-1e-05	0	-3e-05	4e-05	4e-05	-1e-05	-2e-05	0
4732	0	-1e-05	0	-3e-05	4e-05	4e-05	-1e-05	-2e-05	0
4733	0	-1e-05	0	-3e-05	4e-05	4e-05	-1e-05	-2e-05	0
4734	0	-1e-05	0	-3e-05	4e-05	4e-05	-1e-05	-2e-05	0
4735	0	-1e-05	0	-3e-05	4e-05	4e-05	-1e-05	-2e-05	0
4736	0	-1e-05	0	-3e-05	4e-05	4e-05	-1e-05	-2e-05	0
4738	0	-1e-05	0	-3e-05	4e-05	4e-05	-1e-05	-2e-05	0
4739	-3e-05	0	-5e-05	-3e-05	-9e-05	-2e-05	-2e-05	-1e-05	0
4740	-1e-05	-2e-05	-2e-05	1e-05	-0.00014	-2e-05	-1e-05	-1e-05	0
4741	-1e-05	-2e-05	-2e-05	1e-05	-0.00014	-2e-05	-1e-05	-1e-05	0
4742	-1e-05	-2e-05	-2e-05	1e-05	-0.00014	-2e-05	-1e-05	-1e-05	0
4743	-1e-05	-2e-05	-2e-05	1e-05	-0.00014	-2e-05	-1e-05	-1e-05	0
4744	-1e-05	-2e-05	-2e-05	1e-05	-0.00014	-2e-05	-1e-05	-1e-05	0
4745	-1e-05	-2e-05	-2e-05	1e-05	-0.00014	-2e-05	-1e-05	-1e-05	0
4746	-1e-05	-2e-05	-2e-05	1e-05	-0.00014	-2e-05	-1e-05	-1e-05	0
4747	-1e-05	-2e-05	-2e-05	1e-05	-0.00014	-2e-05	-1e-05	-1e-05	0
4748	-1e-05	-2e-05	-2e-05	1e-05	-0.00014	-2e-05	-1e-05	-1e-05	0
4749	-1e-05	-2e-05	-2e-05	1e-05	-0.00014	-2e-05	-1e-05	-1e-05	0
4750	-1e-05	-2e-05	-2e-05	1e-05	-0.00014	-2e-05	-1e-05	-1e-05	0
4751	-1e-05	-2e-05	-2e-05	1e-05	-0.00014	-2e-05	-1e-05	-1e-05	0
4752	-1e-05	-2e-05	-2e-05	1e-05	-0.00014	-2e-05	-1e-05	-1e-05	0
4753	0	-1e-05	4e-05	7e-05	7e-05	-1e-05	0	0	0
4754	0	-1e-05	4e-05	7e-05	7e-05	-1e-05	0	0	0
4755	0	-1e-05	4e-05	7e-05	7e-05	-1e-05	0	0	0
4756	0	-1e-05	4e-05	7e-05	7e-05	-1e-05	0	0	0
4757	0	-1e-05	4e-05	7e-05	7e-05	-1e-05	0	0	0
4758	0	-1e-05	4e-05	7e-05	7e-05	-1e-05	0	0	0
4759	0	-1e-05	4e-05	7e-05	7e-05	-1e-05	0	0	0
4760	0	-1e-05	4e-05	7e-05	7e-05	-1e-05	0	0	0
4761	0	0	5e-05	9e-05	9e-05	0	0	0	0
4762	0	0	5e-05	9e-05	9e-05	0	0	0	0
4764	0	0	5e-05	9e-05	9e-05	0	0	0	0
